x [cm], 	 0.40000000000000002220, 	 2.00000000000000000000, 	 3.60000000000000008882
0.00000000000000000000, 	 0.00000000000000000000, 	 0.00000000000000000000, 	 0.00000000000000000000
5.70020000000000059970, 	 5.39495774542226591564, 	 7.44970956466121592143, 	 9.52652588222577456634
5.70130000000000070060, 	 6.22344038508839325630, 	 7.84687048260423214430, 	 9.71662209545968735824
5.70239999999999991331, 	 8.13486149301117400512, 	 9.23701005763660809578, 	 10.73141894407423002633
5.70350000000000001421, 	 11.14229969885199089674, 	 11.75228488171721608069, 	 12.79988609441098468267
5.70460000000000011511, 	 14.99981287978351751633, 	 15.19828777099550976004, 	 15.81595157253628691763
5.70570000000000021600, 	 19.49880843749423675604, 	 19.35184584619092618141, 	 19.53933300367433645306
5.70680000000000031690, 	 24.49243387008249683845, 	 24.07899615636816648134, 	 23.84467183671016243807
5.70790000000000041780, 	 29.78009213656930498360, 	 29.14736834779878549284, 	 28.50778589864524548148
5.70900000000000051870, 	 35.14103232930077069796, 	 34.28978311638585552146, 	 33.29622038612496481846
5.71010000000000061959, 	 40.38602876411965070247, 	 39.33333460939386583277, 	 38.06110542950330710710
5.71119999999999983231, 	 45.40639905008109167284, 	 44.17696235513226810099, 	 42.69399704351499025279
5.71229999999999993321, 	 50.18766697182211800055, 	 48.82945342775639119282, 	 47.20778624435282466720
5.71340000000000003411, 	 54.78316949478493569359, 	 53.31391016232987567491, 	 51.58798337945838596852
5.71450000000000013500, 	 59.24049516647162505478, 	 57.66399548064326552321, 	 55.84926038457081176603
5.71560000000000023590, 	 63.60738062388243463374, 	 61.92099861720087972117, 	 60.02060689004015614501
5.71670000000000033680, 	 67.92204984052487759527, 	 66.11774678684196260292, 	 64.12833700450995877418
5.71780000000000043769, 	 72.21035737734773363172, 	 70.28271852365395488960, 	 68.19771810097549291640
5.71890000000000053859, 	 76.49437381111222578056, 	 74.43871313206275885932, 	 72.24864330632419751055
5.72000000000000063949, 	 80.78585940116828112423, 	 78.59881956255861723548, 	 76.29576969543315101419
5.72109999999999985221, 	 85.09035548715301899847, 	 82.77075242731136484053, 	 80.34984518015687626757
5.72219999999999995310, 	 89.40935974337335778728, 	 86.95796413479784803258, 	 84.41687701072710581229
5.72330000000000005400, 	 93.74096041202889750821, 	 91.15978514309800573301, 	 88.49785133060855457643
5.72440000000000015490, 	 98.08031672067704676010, 	 95.37186551641994469719, 	 92.58941166825913171579
5.72550000000000025580, 	 102.42062054802936188480, 	 99.58737705615109803148, 	 96.68546736938482411006
5.72660000000000035669, 	 106.75458161643491905579, 	 103.79883535087813584141, 	 100.77930291646761418178
5.72770000000000045759, 	 111.07605717386466892549, 	 108.00001116722727090291, 	 104.86555854388531372479
5.72880000000000055849, 	 115.38131895814458971472, 	 112.18734734065228053623, 	 108.94154831356559043343
5.72990000000000065938, 	 119.66959151809645334197, 	 116.36050911671644314538, 	 113.00765353791786083093
5.73099999999999987210, 	 123.94277744708647048810, 	 120.52203060735286044292, 	 117.06687425590698126143
5.73209999999999997300, 	 128.20458052212575239537, 	 124.67632359569002176158, 	 121.12381606031286196412
5.73320000000000007390, 	 132.45930320043305528088, 	 128.82833812686689611837, 	 125.18338733630308468037
5.73430000000000017479, 	 136.71069917681657557296, 	 132.98234335189721377901, 	 129.24972038388861506064
5.73540000000000027569, 	 140.96118686779297490830, 	 137.14110632028672398519, 	 133.32545540947964468614
5.73650000000000037659, 	 145.21150588469987496865, 	 141.30554172639767784858, 	 137.41144394568701159187
5.73760000000000047748, 	 149.46077331661336984325, 	 145.47477976586878867238, 	 141.50681809627832308252
5.73870000000000057838, 	 153.70681826996926133688, 	 149.64652269453375765806, 	 145.60931313526921826451
5.73980000000000067928, 	 157.94665071893336971698, 	 153.81754173585341050057, 	 149.71571884727370616019
5.74089999999999989200, 	 162.17689210430842194910, 	 157.98406479101109312069, 	 153.81931947098536284102
5.74199999999999999289, 	 166.39510914055833268321, 	 162.14178902381783586861, 	 157.91588967568495149862
5.74310000000000009379, 	 170.59907010383099645878, 	 166.28870293678144776095, 	 162.00483038634808963252
5.74420000000000019469, 	 174.78707731661410207380, 	 170.42320153027563378600, 	 166.08476971053474358087
5.74530000000000029559, 	 178.95755955527093306046, 	 174.54370535366075500860, 	 170.15417587286796674562
5.74640000000000039648, 	 183.10902288817169392132, 	 178.64864423513836300117, 	 174.21144339985087867717
5.74750000000000049738, 	 187.24007889939082360797, 	 182.73652017278379844356, 	 178.25500643934336153507
5.74860000000000059828, 	 191.34949304740359821153, 	 186.80598269530696597940, 	 182.28343642248572109565
5.74970000000000069917, 	 195.43621690668985024786, 	 190.85587673273323616741, 	 186.29549686738886293824
5.75079999999999991189, 	 199.49938682856753757733, 	 194.88524731924903221625, 	 190.29014917404040829751
5.75190000000000001279, 	 203.53828989534022753105, 	 198.89330540346338693780, 	 194.26651934594721637950
5.75300000000000011369, 	 207.55231080562364809339, 	 202.87937200628098821653, 	 198.22384518724282997937
5.75410000000000021458, 	 211.54087672085466920180, 	 206.84281945096262234074, 	 202.16142092540681574064
5.75520000000000031548, 	 215.50341295159796572989, 	 210.78302392361678130328, 	 206.07855290837551365257
5.75630000000000041638, 	 219.43931653014109883770, 	 214.69933685461856498478, 	 209.97453257030633722025
5.75740000000000051728, 	 223.34794771756466502666, 	 218.59107496111587920495, 	 213.84862589329208049094
5.75850000000000061817, 	 227.22863451557699931982, 	 222.45752366205618955064, 	 217.70007439959871931023
5.75960000000000071907, 	 231.08068345326975645548, 	 226.29794688148635373182, 	 221.52810157062521057014
5.76069999999999993179, 	 234.90339072025849986858, 	 230.11159722024305551713, 	 225.33191976790902799621
5.76180000000000003268, 	 238.69605039037421079229, 	 233.89772345100675465801, 	 229.11073541774857176279
5.76290000000000013358, 	 242.45795854195182528201, 	 237.65557388153931128727, 	 232.86375071347643483932
5.76400000000000023448, 	 246.18841354856530756479, 	 241.38439604709230934532, 	 236.59016263730288187617
5.76510000000000033538, 	 249.88671405093620592197, 	 245.08343423886472578488, 	 240.28916041217530619178
5.76620000000000043627, 	 253.55215620811472376772, 	 248.75192655261423624324, 	 243.95992300806179287065
5.76730000000000053717, 	 257.18403166328454290124, 	 252.38910281013579606224, 	 247.60161741957634262690
5.76840000000000063807, 	 260.78162644961929572673, 	 255.99418340526023030179, 	 251.21339768783147405884
5.76949999999999985079, 	 264.34422092943191273662, 	 259.56637935176740938914, 	 254.79440520415690230038
5.77059999999999995168, 	 267.87109066748331542840, 	 263.10489330723515877253, 	 258.34376985494458267567
5.77170000000000005258, 	 271.36150792565626943542, 	 266.60892134708325329484, 	 261.86061203816694842317
5.77280000000000015348, 	 274.81474362905828456860, 	 270.07765533232435473110, 	 265.34404537193267969997
5.77390000000000025437, 	 278.23006963412160530424, 	 273.51028568203776103474, 	 268.79317988999906674508
5.77500000000000035527, 	 281.60676111874346361219, 	 276.90600433643368205594, 	 272.20712548461494861840
5.77610000000000045617, 	 284.94409892123934469055, 	 280.26400769983189320556, 	 275.58499535621956511022
5.77720000000000055707, 	 288.24137167332946773968, 	 283.58349936888788533906, 	 278.92590924178978184500
5.77830000000000065796, 	 291.49787759473139203692, 	 286.86369247385880498769, 	 282.22899621551050586277
5.77939999999999987068, 	 294.71292585165730315566, 	 290.10381150709162056955, 	 285.49339692234838139484
5.78049999999999997158, 	 297.88583744600936142888, 	 293.30309359418856729462, 	 288.71826519860951520968
5.78160000000000007248, 	 301.01594566706603472994, 	 296.46078923578210151391, 	 291.90276910063857940258
5.78270000000000017337, 	 304.10259617440351576079, 	 299.57616258875259518391, 	 295.04609140286049751012
5.78380000000000027427, 	 307.14514679889117587663, 	 302.64849138293828900714, 	 298.14742966643757426937
5.78490000000000037517, 	 310.14296716176306745183, 	 305.67706658908616645931, 	 301.20599600388089811531
5.78600000000000047606, 	 313.09543821274229458140, 	 308.66119195812319730976, 	 304.22101667314711903600
5.78710000000000057696, 	 316.00195178150909214310, 	 311.60018354776457272237, 	 307.19173163463716491606
5.78820000000000067786, 	 318.86191022612035794737, 	 314.49336934262362319714, 	 310.11739419609585866056
5.78929999999999989058, 	 321.67472624648439705197, 	 317.34008905586608761951, 	 312.99727084832653645208
5.79039999999999999147, 	 324.43982290646954425029, 	 320.13969416989965566245, 	 315.83064135799298810525
5.79150000000000009237, 	 327.15663387955959251485, 	 322.89154824023813716849, 	 318.61679914783587719285
5.79260000000000019327, 	 329.82460389450159254920, 	 325.59502742992191315352, 	 321.35505190924618545978
5.79370000000000029416, 	 332.44318930845685144959, 	 328.24952119616250456602, 	 324.04472238156893126870
5.79480000000000039506, 	 335.01185874364375649748, 	 330.85443305961183568797, 	 326.68514922430023261768
5.79590000000000049596, 	 337.53009372467448656607, 	 333.40918138538427228923, 	 329.27568791359664146512
5.79700000000000059686, 	 339.99738927305656943645, 	 335.91320012515541293396, 	 331.81571160728395852857
5.79810000000000069775, 	 342.41325442958134317450, 	 338.36593948391146113863, 	 334.30461193762840821364
5.79919999999999991047, 	 344.77721269118677582810, 	 340.76686649276814478071, 	 336.74179970875155731846
5.80030000000000001137, 	 347.08880236159495780157, 	 343.11546548355613595049, 	 339.12670549038534772990
5.80140000000000011227, 	 349.34757682440766757281, 	 345.41123847217937736787, 	 341.45878011223521752981
5.80250000000000021316, 	 351.55310475304725059686, 	 347.65370546477350899295, 	 343.73749507076809095452
5.80360000000000031406, 	 353.70497027314479510096, 	 349.84240470252143495600, 	 345.96234286251348066799
5.80470000000000041496, 	 355.80277309100972615852, 	 351.97689285947581083747, 	 348.13283725686937941646
5.80580000000000051585, 	 357.84612859515544869282, 	 354.05674519881392825482, 	 350.24851350951092854302
5.80690000000000061675, 	 359.83466793101575831315, 	 356.08155568903583798601, 	 352.30892852236075896144
5.80800000000000071765, 	 361.76803805106601430452, 	 358.05093708324028511925, 	 354.31366095294629303680
5.80909999999999993037, 	 363.64590173941274997560, 	 359.96452096028036748976, 	 356.26231127173042523282
5.81020000000000003126, 	 365.46793760790620808621, 	 361.82195772359835928000, 	 358.15450175636942731217
5.81130000000000013216, 	 367.23384001159990930319, 	 363.62291645977308007787, 	 359.98987624612198032992
5.81240000000000023306, 	 368.94331888536788710553, 	 365.36708480949857857922, 	 361.76810021607786893583
5.81350000000000033396, 	 370.59609992212750739782, 	 367.05416922383591327161, 	 363.48886103973330818917
5.81460000000000043485, 	 372.19192463155957284471, 	 368.68389490633541072384, 	 365.15186768444732479111
5.81570000000000053575, 	 373.73055006220158702490, 	 370.25600541955253675042, 	 366.75685020818264092668
5.81680000000000063665, 	 375.21174840028015751159, 	 371.77026220149821256200, 	 368.30355925196369071273
5.81789999999999984936, 	 376.63530662428291861943, 	 373.22644416318490812046, 	 369.79176563637832941822
5.81899999999999995026, 	 378.00102629198931936116, 	 374.62434743069951537109, 	 371.22126008621023629530
5.82010000000000005116, 	 379.30872344561822728792, 	 375.96378520399599665325, 	 372.59185303900335384242
5.82120000000000015206, 	 380.55822856930956277210, 	 377.24458765725444209238, 	 373.90337446452457470514
5.82230000000000025295, 	 381.74938652655094983857, 	 378.46660180484695956693, 	 375.15567363136136691537
5.82340000000000035385, 	 382.88205643010053336184, 	 379.62969128683971575811, 	 376.34861878818287550530
5.82450000000000045475, 	 383.95611143290193467692, 	 380.73373606664074486616, 	 377.48209676151884650608
5.82560000000000055564, 	 384.97143845797876338111, 	 381.77863206334649248674, 	 378.55601249568655930489
5.82670000000000065654, 	 385.92793789945363869265, 	 382.76429075440796623298, 	 379.57028856865673560606
5.82779999999999986926, 	 386.82552332556986129930, 	 383.69063878131458977805, 	 380.52486471249773103409
5.82889999999999997016, 	 387.66412120347791869790, 	 384.55761757843794157452, 	 381.41969735476192226997
5.83000000000000007105, 	 388.44367065173861419680, 	 385.36518303052116607432, 	 382.25475918426951693618
5.83110000000000017195, 	 389.16412321557862696864, 	 386.11330515314750755351, 	 383.03003873557526048899
5.83220000000000027285, 	 389.82544265449928388989, 	 386.80196778525498757517, 	 383.74553998251963093935
5.83330000000000037375, 	 390.42760473167123791427, 	 387.43116828291408637597, 	 384.40128193189121930118
5.83440000000000047464, 	 390.97059699775888930162, 	 388.00091720708445564014, 	 384.99729821146223684991
5.83550000000000057554, 	 391.45441856618168685600, 	 388.51123800263627572349, 	 385.53363665067848842227
5.83660000000000067644, 	 391.87907988064921482874, 	 388.96216666984560106357, 	 386.01035885554830429101
5.83769999999999988916, 	 392.24460247803131096589, 	 389.35375143171182799051, 	 386.42753978082328103483
5.83879999999999999005, 	 392.55101875001611233529, 	 389.68605240070053241652, 	 386.78526730257885901665
5.83990000000000009095, 	 392.79837170623801512193, 	 389.95914124770752096083, 	 387.08364179367697488487
5.84100000000000019185, 	 392.98671251631060385989, 	 390.17309573015057821976, 	 387.32276272032635233700
5.84210000000000029274, 	 393.11608823961705638794, 	 390.32798589643647346747, 	 387.50272294278579465754
5.84320000000000039364, 	 393.18655102627866426701, 	 390.42389314693195956352, 	 387.62363956470949233335
5.84430000000000049454, 	 393.19817604924406850841, 	 390.46092603410244237239, 	 387.68565866313480228200
5.84540000000000059543, 	 393.15106340233734272260, 	 390.43921974209558811708, 	 387.68895143731651842245
5.84650000000000069633, 	 393.04533314994540660336, 	 390.35893042162234678472, 	 387.63370898439399070412
5.84759999999999990905, 	 392.88111926006001795031, 	 390.22022882255510012328, 	 387.52013680920578053701
5.84870000000000000995, 	 392.65856404526249434639, 	 390.02329387211682387715, 	 387.34844771107043470693
5.84980000000000011084, 	 392.37781245890772652274, 	 389.76830587844426645461, 	 387.11885451513711586813
5.85090000000000021174, 	 392.03900794879115210279, 	 389.45544201708213449820, 	 386.83156621014029497019
5.85200000000000031264, 	 391.64229164057371690433, 	 389.08487569256720917110, 	 386.48678794577517692233
5.85310000000000041354, 	 391.18780435984660925897, 	 388.65677882224770200992, 	 386.08472335224985272362
5.85420000000000051443, 	 390.67568991273975598233, 	 388.17132535686528171937, 	 385.62557780992847256130
5.85530000000000061533, 	 390.10609835792280364331, 	 387.62869480224793505840, 	 385.10956178289427498385
5.85640000000000071623, 	 389.47918871063296819557, 	 387.02907526994601994375, 	 384.53689396696643143514
5.85749999999999992895, 	 388.79513093039031446096, 	 386.37266577455773131078, 	 383.90780365965974851861
5.85860000000000002984, 	 388.05410702446016557587, 	 385.65967762239142757608, 	 383.22253241133330448065
5.85970000000000013074, 	 387.25631159956901683472, 	 384.89033526883474678471, 	 382.48133520775309079909
5.86080000000000023164, 	 386.40195191268878716073, 	 384.06487645449385581742, 	 381.68448053034813938211
5.86190000000000033253, 	 385.49124695125112793903, 	 383.18355101013924013387, 	 380.83224867870427488015
5.86300000000000043343, 	 384.52442526552169965726, 	 382.24661812216407952292, 	 379.92492840198246994987
5.86410000000000053433, 	 383.50172178906274211840, 	 381.25434243463104166949, 	 378.96281243690953033365
5.86520000000000063523, 	 382.42337436913686588014, 	 380.20698993582351477016, 	 377.94619315794136582554
5.86629999999999984794, 	 381.28962109223300558369, 	 379.10482494919671125899, 	 376.87535978339894882083
5.86739999999999994884, 	 380.10069940523339937499, 	 377.94810933518590445601, 	 375.75059811878958271336
5.86850000000000004974, 	 378.85684742247326539655, 	 376.73710422668284536485, 	 374.57219288118784561448
5.86960000000000015064, 	 377.55830697316952182518, 	 375.47207366305360665137, 	 373.34043170685890800087
5.87070000000000025153, 	 376.20532729653081105425, 	 374.15328880997054739055, 	 372.05560940015305959605
5.87180000000000035243, 	 374.79816810184996711541, 	 372.78103131108360912549, 	 370.71803099199792086438
5.87290000000000045333, 	 373.33710100936798426119, 	 371.35559471534617159705, 	 369.32801267820855173341
5.87400000000000055422, 	 371.82240888226789365945, 	 369.87728340774953039727, 	 367.88588003152113969918
5.87510000000000065512, 	 370.25438314616002344337, 	 368.34640935127640659630, 	 366.39196434230200338789
5.87619999999999986784, 	 368.63332026887491110756, 	 366.76328806365825130342, 	 364.84659852371578381280
5.87729999999999996874, 	 366.95951853147039400938, 	 365.12823497860102861523, 	 363.25011351986393037805
5.87840000000000006963, 	 365.23327584879433516107, 	 363.44156303475006097869, 	 361.60283605955794428155
5.87950000000000017053, 	 363.45488906129122597122, 	 361.70358194507008420260, 	 359.90508813228916551452
5.88060000000000027143, 	 361.62465464178001184337, 	 359.91459903110808227211, 	 358.15718794940806901650
5.88170000000000037232, 	 359.74287031955208249201, 	 358.07492102857139570915, 	 356.35945173195437973845
5.88280000000000047322, 	 357.81151550516597126261, 	 356.18481116260295493703, 	 354.51232517346903705402
5.88390000000000057412, 	 355.83454995672934728645, 	 354.24569554867593978997, 	 352.61554702946017414433
5.88500000000000067502, 	 353.80893760259203872920, 	 352.25732446323081603623, 	 350.66920052773764382437
5.88609999999999988773, 	 351.73313175248199513589, 	 350.21878554902025371121, 	 348.67294724551362605780
5.88719999999999998863, 	 349.60640431036335940007, 	 348.12961299642086032691, 	 346.62661963203618142870
5.88830000000000008953, 	 347.42860996478407287213, 	 345.98985125598471768171, 	 344.53044430055496150089
5.88940000000000019043, 	 345.20015821878712358739, 	 343.79992260773781254102, 	 342.38478039942168607013
5.89050000000000029132, 	 342.92167002867159908419, 	 341.56048949148868132397, 	 340.19028674228570707783
5.89160000000000039222, 	 340.59385798494929531444, 	 339.27234920926883887660, 	 337.94778972031872399384
5.89270000000000049312, 	 338.21745933311729004345, 	 336.93631595208341877878, 	 335.65812464743140708379
5.89380000000000059401, 	 335.79315393780314025207, 	 334.55312974327978281508, 	 333.32204456113930746142
5.89490000000000069491, 	 333.32150473070890939198, 	 332.12338211383661246145, 	 330.94013248732233023475
5.89599999999999990763, 	 330.80292899159957187294, 	 329.64749670112917101505, 	 328.51281738638164142685
5.89710000000000000853, 	 328.23774629589536289132, 	 327.12578435551120037417, 	 326.04040219706865855187
5.89820000000000010942, 	 325.62615146373900643084, 	 324.55837350204717495217, 	 323.52296517380619889082
5.89930000000000021032, 	 322.96831373983849289289, 	 321.94542157285599159877, 	 320.96070160631381895655
5.90040000000000031122, 	 320.26441576650626075207, 	 319.28702246983044688022, 	 318.35358761885373723999
5.90150000000000041211, 	 317.51455256532312887430, 	 316.58318702897634011606, 	 315.70158968904968332936
5.90260000000000051301, 	 314.71888779361120214162, 	 313.83404867493271694912, 	 313.00487735253898335941
