x [cm], 	 0.69214285714285717077, 	 48.45000000000000284217, 	 96.20785714285715073402
0.00000000000000000000, 	 0.00000000000000000000, 	 0.00000000000000000000, 	 0.00000000000000000000
5.70020000000000059970, 	 -0.31297374079544737491, 	 1.25812574031637391947, 	 2.85514531430590690064
5.70130000000000070060, 	 -0.29050426440314075505, 	 1.26291982241399036724, 	 2.84257865365086725973
5.70239999999999991331, 	 -0.26765818415938147368, 	 1.26792130235876543409, 	 2.83017309793366367288
5.70350000000000001421, 	 -0.24445174756440971042, 	 1.27313338733984604545, 	 2.81792978027806118035
5.70460000000000011511, 	 -0.22090079818135574530, 	 1.27855922176105596400, 	 2.80584986587051066209
5.70570000000000021600, 	 -0.19702114276958299088, 	 1.28420181144552691954, 	 2.79393453266864977280
5.70680000000000031690, 	 -0.17282874721631077963, 	 1.29006394209098029791, 	 2.78218496743476872979
5.70790000000000041780, 	 -0.14833977115747970510, 	 1.29614811830708021034, 	 2.77060235299640789108
5.70900000000000051870, 	 -0.12357090158317864115, 	 1.30245650015030767221, 	 2.75918785189079240894
5.71010000000000061959, 	 -0.09853919689900066115, 	 1.30899084109526508968, 	 2.74794260666206913157
5.71119999999999983231, 	 -0.07326206580688826575, 	 1.31575244980726924204, 	 2.73686771601579037494
5.71229999999999993321, 	 -0.04775724675412519604, 	 1.32274213842800691943, 	 2.72596423122862141497
5.71340000000000003411, 	 -0.02204271299838352072, 	 1.32996017029082813643, 	 2.71523314637214374656
5.71450000000000013500, 	 0.00386360355687941125, 	 1.33740622098721551048, 	 2.70467537621681763937
5.71560000000000023590, 	 0.02994447399620366046, 	 1.34507933091063458519, 	 2.69429176367755340848
5.71670000000000033680, 	 0.05618471568413000578, 	 1.35297786781950857282, 	 2.68408302382021313193
5.71780000000000043769, 	 0.08257364648591672407, 	 1.36109949938338670172, 	 2.67404982161455384571
5.71890000000000053859, 	 0.10910851923255739104, 	 1.36944117246783680919, 	 2.66419270517580608626
5.72000000000000063949, 	 0.13579985504504735183, 	 1.37799912248835210171, 	 2.65451212062381403101
5.72109999999999985221, 	 0.16267804764354354408, 	 1.38676890931577490029, 	 2.64500839567604950631
5.72219999999999995310, 	 0.18980092231633741151, 	 1.39574551455647632991, 	 2.63568164097964618975
5.72330000000000005400, 	 0.21726191273948802785, 	 1.40492354865738833247, 	 2.62653183961756919729
5.72440000000000015490, 	 0.24519798559612188127, 	 1.41429759832486645621, 	 2.61755885302041413354
5.72550000000000025580, 	 0.27379651875497490465, 	 1.42386276480932583155, 	 2.60876238255657399989
5.72660000000000035669, 	 0.30330077966073654139, 	 1.43361544881386948624, 	 2.60014192143076572350
5.72770000000000045759, 	 0.33401283083808380736, 	 1.44355442852559701095, 	 2.59169677676058141103
5.72880000000000055849, 	 0.36629343161917149452, 	 1.45368225538562012567, 	 2.58342593557399924364
5.72990000000000065938, 	 0.40055974845451153277, 	 1.46400697245318700546, 	 2.57532832426194513431
5.73099999999999987210, 	 0.43728061664483713900, 	 1.47454412299755199811, 	 2.56740294045929751121
5.73209999999999997300, 	 0.47697314236021848277, 	 1.48531900870645849899, 	 2.55964897562865667524
5.73320000000000007390, 	 0.52016445077911199757, 	 1.49636912329068039185, 	 2.55206561764621042698
5.73430000000000017479, 	 0.56740662595934576728, 	 1.50774667040839083221, 	 2.54465247165593178025
5.73540000000000027569, 	 0.61927025476777375346, 	 1.51952106947722920260, 	 2.53741051683399865269
5.73650000000000037659, 	 0.67635412702774344584, 	 1.53178129195169820953, 	 2.53034130764606679520
5.73760000000000047748, 	 0.73907148457307980660, 	 1.54463788948963465231, 	 2.52344729209153406657
5.73870000000000057838, 	 0.80953298856375055514, 	 1.55822464188465215074, 	 2.51673246005610984355
5.73980000000000067928, 	 0.88456370876650269874, 	 1.57269981016134208218, 	 2.51020297732007779956
5.74089999999999989200, 	 0.96712848519414273962, 	 1.58824741232122512713, 	 2.50386775292852536978
5.74199999999999999289, 	 1.05819671104707846432, 	 1.60507838366063015911, 	 2.49773897268583988662
5.74310000000000009379, 	 1.15802556262998446179, 	 1.62342637576865533866, 	 2.49183262507308000977
5.74420000000000019469, 	 1.26678397494336913987, 	 1.64354401556393181494, 	 2.48616902604490919160
5.74530000000000029559, 	 1.38489016098572381708, 	 1.66570554677112325770, 	 2.48077333132016653039
5.74640000000000039648, 	 1.51263083008021581577, 	 1.69020937004867288778, 	 2.47567599189115838954
5.74750000000000049738, 	 1.65016630070787551077, 	 1.71737668866092163533, 	 2.47091297494119288558
5.74860000000000059828, 	 1.79767859324511758423, 	 1.74754822765994388689, 	 2.46652633225255168981
5.74970000000000069917, 	 1.95531170854101499224, 	 1.78108029271464785026, 	 2.46256416658079224646
5.75079999999999991189, 	 2.12320832231936451606, 	 1.81834038135548148318, 	 2.45908063445002822434
5.75190000000000001279, 	 2.30145287351092475703, 	 1.85970279105743552250, 	 2.45613617797601113679
5.75300000000000011369, 	 2.49006010346175710168, 	 1.90554451320276596604, 	 2.45379756334881227176
5.75410000000000021458, 	 2.68900021236338160335, 	 1.95624141359081793468, 	 2.45213751138954050290
5.75520000000000031548, 	 2.89821756494368543144, 	 2.01216368906269504890, 	 2.45123457624089180484
5.75630000000000041638, 	 3.11763366594002144794, 	 2.07357601499285548741, 	 2.45117320517352421660
5.75740000000000051728, 	 3.34713916473176942290, 	 2.14079185989305509352, 	 2.45204251873993239741
5.75850000000000061817, 	 3.58661443584977090993, 	 2.21420079308160477893, 	 2.45393595328698577163
5.75960000000000071907, 	 3.83591205884771468959, 	 2.29413806434851785809, 	 2.45695011255005901774
5.76069999999999993179, 	 4.09485447527717116856, 	 2.38089383273378274453, 	 2.46118695684514454669
5.76180000000000003268, 	 4.36323718373378977020, 	 2.47473628234716036545, 	 2.46673525594685605355
5.76290000000000013358, 	 4.64083223504615638433, 	 2.57590840812636301393, 	 2.47352371307016483115
5.76400000000000023448, 	 4.92739104294346486057, 	 2.68462665438225478454, 	 2.48101796142087849262
5.76510000000000033538, 	 5.22264615675507126724, 	 2.80107938970587744265, 	 2.48936132050588376785
5.76620000000000043627, 	 5.52631509594601499913, 	 2.92542506222990805753, 	 2.49977067374094064078
5.76730000000000053717, 	 5.83809892881440539725, 	 3.05778913228851934036, 	 2.51357552984114152039
5.76840000000000063807, 	 6.15768175404304329845, 	 3.19826196388875372278, 	 2.52982503790416624057
5.76949999999999985079, 	 6.48473577023449809786, 	 3.34690164659919409118, 	 2.54820200492656567803
5.77059999999999995168, 	 6.81892512319689547695, 	 3.50373926540537361518, 	 2.56825382541739877240
5.77170000000000005258, 	 7.15990765423977126858, 	 3.66877997567010893931, 	 2.59026046910569274218
5.77280000000000015348, 	 7.50733550580462516422, 	 3.84200010957744053641, 	 2.61445248817625497395
5.77390000000000025437, 	 7.86085492962365517400, 	 4.02334356126553949196, 	 2.64094659318466229436
5.77500000000000035527, 	 8.22010587453944552294, 	 4.21272007659372338395, 	 2.66973161253061608278
5.77610000000000045617, 	 8.58471928394093097836, 	 4.41000593308748989330, 	 2.70078427419003208598
5.77720000000000055707, 	 8.95432607081487041967, 	 4.61504565096454122397, 	 2.73417681295550307752
5.77830000000000065796, 	 9.32855296339865880384, 	 4.82765351811285903239, 	 2.76999606579254065153
5.77939999999999987068, 	 9.70702202803330393976, 	 5.04761478854812573047, 	 2.80831047530727095918
5.78049999999999997158, 	 10.08935052691005829217, 	 5.27468713289943025302, 	 2.84916339179397093417
5.78160000000000007248, 	 10.47515137705152987735, 	 5.50860236279790171920, 	 2.89258252282330996508
5.78270000000000017337, 	 10.86403370039650440049, 	 5.74906830481333397387, 	 2.93858397509804447623
5.78380000000000027427, 	 11.25560322123936352057, 	 5.99577074741981075334, 	 2.98717155802035927437
5.78490000000000037517, 	 11.64946244148863918610, 	 6.24837532675077866884, 	 3.03834010274262933393
5.78600000000000047606, 	 12.04521064021072795924, 	 6.50652926875605963630, 	 3.09207865247157309696
5.78710000000000057696, 	 12.44244384866826713676, 	 6.76986306064785292591, 	 3.14836778040436060522
5.78820000000000067786, 	 12.84075433175298996957, 	 7.03799209485012244869, 	 3.20715417055146367886
5.78929999999999989058, 	 13.23972962689936494485, 	 7.31051830000316638092, 	 3.26839243133736401248
5.79039999999999999147, 	 13.63895712474833921135, 	 7.58703177414419549507, 	 3.33204792319113707322
5.79150000000000009237, 	 14.03802054630485152131, 	 7.86711237156133869064, 	 3.39808846238768591519
5.79260000000000019327, 	 14.43650112285107134369, 	 8.15033121377774705252, 	 3.46647845422108824565
5.79370000000000029416, 	 14.83397762121169272120, 	 8.43625222746301339782, 	 3.53717626901228454628
5.79480000000000039506, 	 15.23002628155229665197, 	 8.72443374856574926923, 	 3.61013365481953707459
5.79590000000000049596, 	 15.62422010327025034826, 	 9.01443014637314554705, 	 3.68529613137572242820
5.79700000000000059686, 	 16.01613060361366080997, 	 9.30579341458181730218, 	 3.76260373576837858778
5.79810000000000069775, 	 16.40532999898645272197, 	 9.59807470465677603499, 	 3.84199180717315202926
5.79919999999999991047, 	 16.79138753898665825659, 	 9.89082574726622532069, 	 3.92339168310427499620
5.80030000000000001137, 	 17.17387337503864230825, 	 10.18360015377911587109, 	 4.00673127423727315488
5.80140000000000011227, 	 17.55235844301135017531, 	 10.47595466448329126763, 	 4.09193552672252813807
5.80250000000000021316, 	 17.92641521731435716447, 	 10.76745035132983296933, 	 4.17892679489401963622
5.80360000000000031406, 	 18.29561927284568056962, 	 11.05765399222510581012, 	 4.26762514814670979035
5.80470000000000041496, 	 18.65955016155703205527, 	 11.34614021018599494539, 	 4.35794884907280888342
5.80580000000000051585, 	 19.01779195336044026021, 	 11.63249662457852728892, 	 4.44981477522161661398
5.80690000000000061675, 	 19.36993400983466528942, 	 11.91631591220324004610, 	 4.54313761038914698531
5.80800000000000071765, 	 19.71557191765010941253, 	 12.19717863171108440667, 	 4.63782988263328110889
5.80909999999999993037, 	 20.05430843136466023680, 	 12.47468889676539482991, 	 4.73380333939125730325
5.81020000000000003126, 	 20.38575441037591318150, 	 12.74846330325894783186, 	 4.83096984573825238840
5.81130000000000013216, 	 20.70952978006493694352, 	 13.01812927680610165737, 	 4.92924081519736656531
5.81240000000000023306, 	 21.02526450969893545562, 	 13.28332609452537482753, 	 5.02852697247952118431
5.81350000000000033396, 	 21.33259959102785785490, 	 13.54370542189017534440, 	 5.12873796325792863371
5.81460000000000043485, 	 21.63118822403815499911, 	 13.79893153947935680037, 	 5.22978194093502768425
5.81570000000000053575, 	 21.92069595115738778190, 	 14.04868172929227654322, 	 5.33156656225129310656
5.81680000000000063665, 	 22.20080296861206292647, 	 14.29264667265253585526, 	 5.43399850074962031954
5.81789999999999984936, 	 22.47120448762855104974, 	 14.53053092713376059919, 	 5.53698361886386258846
5.81899999999999995026, 	 22.73160997219783396872, 	 14.76205329077225059109, 	 5.64042854951071426228
5.82010000000000005116, 	 22.98174384321956154054, 	 14.98694704581372505459, 	 5.74424078092821677188
5.82120000000000015206, 	 23.22134690512159238551, 	 15.20496019039477531010, 	 5.84832856922631449947
5.82230000000000025295, 	 23.45017765718409918918, 	 15.41585565900363974379, 	 5.95260088619078331362
5.82340000000000035385, 	 23.66801320009393450050, 	 15.61941152058734516572, 	 6.05696742108763519497
5.82450000000000045475, 	 23.87464976772281133321, 	 15.81542115041491136651, 	 6.16133862635357143489
5.82560000000000055564, 	 24.06990302916092261398, 	 16.00369337696792015890, 	 6.26562579388665419344
5.82670000000000065654, 	 24.25360824282476812641, 	 16.18405260639401532785, 	 6.36974115082240643915
5.82779999999999986926, 	 24.42562026236109318234, 	 16.35633892597319416495, 	 6.47359796665757247780
5.82889999999999997016, 	 24.58581357775316078573, 	 16.52040818627715168532, 	 6.57711066621245077357
5.83000000000000007105, 	 24.73408232146575969068, 	 16.67613206009454884793, 	 6.68019494496351473600
5.83110000000000017195, 	 24.87034061398726692005, 	 16.82339807518754426496, 	 6.78276788474302616549
5.83220000000000027285, 	 24.99452152059227927339, 	 16.96210961794795579749, 	 6.88474806876630474051
5.83330000000000037375, 	 25.10657742419006055457, 	 17.09218590601989262723, 	 6.98605569550246841004
5.83440000000000047464, 	 25.20648108877855619880, 	 17.21356192900778481203, 	 7.08661269136955684900
5.83550000000000057554, 	 25.29422477989376005780, 	 17.32618836105561399563, 	 7.18634292228322735241
5.83660000000000067644, 	 25.36981894294100570164, 	 17.43003145255472219333, 	 7.28517243182704898885
5.83769999999999988916, 	 25.43329192246573811076, 	 17.52507288117309869335, 	 7.38302916871263370524
5.83879999999999999005, 	 25.48468992830005674932, 	 17.61130955266880349086, 	 7.47984763744605807290
5.83990000000000009095, 	 25.52407953957598607531, 	 17.68875337803328662289, 	 7.57555988964167870137
5.84100000000000019185, 	 25.55154836334428836153, 	 17.75743105954542500058, 	 7.67009157111035122512
5.84210000000000029274, 	 25.56719996995007093687, 	 17.81738404100239847594, 	 7.76337208366904807377
5.84320000000000039364, 	 25.57115223329451580980, 	 17.86866832844345154285, 	 7.85533806035302095694
5.84430000000000049454, 	 25.56353675250875312486, 	 17.91134975563342379701, 	 7.94593256331576469620
5.84540000000000059543, 	 25.54449895896389222116, 	 17.94551048716402519290, 	 8.03510333913474106282
5.84650000000000069633, 	 25.51419840511985626108, 	 17.97124589380016246309, 	 8.12280154893645978120
5.84759999999999990905, 	 25.47280865240234959401, 	 17.98866378120001741081, 	 8.20898113687957575735
5.84870000000000000995, 	 25.42051670403893837147, 	 17.99788427733126283670, 	 8.29359819010920062965
5.84980000000000011084, 	 25.35752226235875284033, 	 17.99903913430615176594, 	 8.37661056797519698591
5.85090000000000021174, 	 25.28403692221167986531, 	 17.99227127424109795584, 	 8.45797815250192108749
5.85200000000000031264, 	 25.20028339057208199847, 	 17.97773431492701945444, 	 8.53766322591456194857
5.85310000000000041354, 	 25.10649473268631126643, 	 17.95559204166833566774, 	 8.61563075438559344832
5.85420000000000051443, 	 25.00291143649756975265, 	 17.92601784130362929659, 	 8.69184856927271276561
5.85530000000000061533, 	 24.88975568373431457303, 	 17.88919406179216764485, 	 8.76628746908409084426
5.85640000000000071623, 	 24.76728658371723312825, 	 17.84530920019612665328, 	 8.83892126506458097879
5.85749999999999992895, 	 24.63571577755549668609, 	 17.79454875588266205000, 	 8.90972678772135928682
5.85860000000000002984, 	 24.49526795561629199938, 	 17.73712671535640339471, 	 8.97868386397877848992
5.85970000000000013074, 	 24.34620858735818771379, 	 17.67328664952849592851, 	 9.04577525046205721537
5.86080000000000023164, 	 24.18890075191136546096, 	 17.60325225049468045313, 	 9.11098647814701401160
5.86190000000000033253, 	 24.02373186244927438793, 	 17.52721031304739796042, 	 9.17430563666852272320
5.86300000000000043343, 	 23.85105439010748540341, 	 17.44538950827328704918, 	 9.23572326051538006197
5.86410000000000053433, 	 23.67118794119209468363, 	 17.35801971025982481933, 	 9.29523242781805336676
5.86520000000000063523, 	 23.48443180838344801487, 	 17.26533428379492818294, 	 9.35282898795016137683
5.86629999999999984794, 	 23.29107542761569504819, 	 17.16756965026807080221, 	 9.40851174140196810924
5.86739999999999994884, 	 23.09140517913279211371, 	 17.06496507143967278353, 	 9.46228245658622135750
5.86850000000000004974, 	 22.88570777491981544927, 	 16.95776212479896116747, 	 9.51414572202983777061
5.86960000000000015064, 	 22.67426033959491959990, 	 16.84620403188709403253, 	 9.56410868814526082815
5.87070000000000025153, 	 22.45740687104562383070, 	 16.73053486064122097332, 	 9.61218080618835024609
5.87180000000000035243, 	 22.23549755219884005442, 	 16.61099870731727889961, 	 9.65837361744515554562
5.87290000000000045333, 	 22.00882790250178899782, 	 16.48783890680197572465, 	 9.70270047349406894455
5.87400000000000055422, 	 21.77766877181942817288, 	 16.36129736300999226728, 	 9.74517635129441117670
5.87510000000000065512, 	 21.54228393204536118333, 	 16.23161404782525352175, 	 9.78581797726741342558
5.87619999999999986784, 	 21.30293708757706028223, 	 16.09902651310185817124, 	 9.82464393836434091156
5.87729999999999996874, 	 21.05989348651181813921, 	 15.96376934255544810526, 	 9.86167452608540173742
5.87840000000000006963, 	 20.81341925714773211098, 	 15.82607350081352848292, 	 9.89693103507520000051
5.87950000000000017053, 	 20.56378000153793550453, 	 15.68616569361634205393, 	 9.93043580580927098822
5.88060000000000027143, 	 20.31123760563394853307, 	 15.54426774412669587377, 	 9.96221207470585135013
5.88170000000000037232, 	 20.05605267529388058279, 	 15.40059607468088209714, 	 9.99228532178972805866
5.88280000000000047322, 	 19.79848288536343758892, 	 15.25536125579035306998, 	 10.02068470107285591553
5.88390000000000057412, 	 19.53878000682336946170, 	 15.10876761069063967113, 	 10.04743896612097664445
5.88500000000000067502, 	 19.27718848069969936887, 	 14.96101284270275932897, 	 10.07257453567845750797
5.88609999999999988773, 	 19.01394843416292346205, 	 14.81228782936916488211, 	 10.09611807897418422897
5.88719999999999998863, 	 18.74929391184127069891, 	 14.66277650500028073566, 	 10.11809706380508622203
5.88830000000000008953, 	 18.48345181338000742244, 	 14.51265573531076036318, 	 10.13854061090069436091
5.88940000000000019043, 	 18.21664193968910439025, 	 14.36209513338995158449, 	 10.15747984050161534242
5.89050000000000029132, 	 17.94914331491263936869, 	 14.21125691116879430353, 	 10.17494594473194169382
5.89160000000000039222, 	 17.68123618746844982752, 	 14.06029577406665254102, 	 10.19097141140326456821
5.89270000000000049312, 	 17.41308218530891593900, 	 13.90935889435082195575, 	 10.20558843663439141380
5.89380000000000059401, 	 17.14483447007939886930, 	 13.75858603505772492781, 	 10.21883079285094808597
5.89490000000000069491, 	 16.87664729608681213335, 	 13.60810976375974945540, 	 10.23073169601127574424
5.89599999999999990763, 	 16.60867611136551502682, 	 13.45805553286787414891, 	 10.24131941570768411509
5.89710000000000000853, 	 16.34107371335777969534, 	 13.30854156465418647315, 	 10.25062430514418743144
5.89820000000000010942, 	 16.07399227606286373771, 	 13.15967860845850623264, 	 10.25867718834601838296
5.89930000000000021032, 	 15.80757936986232259358, 	 13.01157066291122710311, 	 10.26550808006944670581
5.90040000000000031122, 	 15.54197540433416691030, 	 12.86431541643598741587, 	 10.27114605466773866738
5.90150000000000041211, 	 15.27731235951516275406, 	 12.71799719840797671111, 	 10.27561950948364888347
5.90260000000000051301, 	 15.01371567681336571809, 	 12.57269552322573247238, 	 10.27895643361197564047
5.90370000000000061391, 	 14.75130440956645827555, 	 12.42848213657732436843, 	 10.28118459189795963482
5.90480000000000071481, 	 14.49019022502414699716, 	 12.28542126645820253827, 	 10.28233151747478224536
5.90589999999999992752, 	 14.23047722225172684318, 	 12.14356988916735069495, 	 10.28242433011295808853
5.90700000000000002842, 	 13.97226193154343576452, 	 12.00297798431530615915, 	 10.28148954806526482741
5.90810000000000012932, 	 13.71563334104549092274, 	 11.86368877799962895381, 	 10.27955296983457245119
5.90920000000000023022, 	 13.46067300918609177529, 	 11.72573898485756949128, 	 10.27663961513957247007
5.91030000000000033111, 	 13.20745521388169940735, 	 11.58915905035264515277, 	 10.27277370203465167720
5.91140000000000043201, 	 12.95604713632427795744, 	 11.45397339535008640610, 	 10.26797864704439078309
