x [cm], 	 0.69214285714285717077, 	 48.45000000000000284217, 	 96.20785714285715073402
0.00000000000000000000, 	 0.00000000000000000000, 	 0.00000000000000000000, 	 0.00000000000000000000
5.70020000000000059970, 	 0.00027664955533814885, 	 1.24626444053500384790, 	 2.53463987713884986164
5.70130000000000070060, 	 0.02360565951278805960, 	 1.25204350226709792970, 	 2.52398872572973731465
5.70239999999999991331, 	 0.04716583632065327047, 	 1.25812365700094974663, 	 2.51351573283138973736
5.70350000000000001421, 	 0.07093778091246248640, 	 1.26450375246256729866, 	 2.50322268586832885617
5.70460000000000011511, 	 0.09490140189707126084, 	 1.27118153086686036524, 	 2.49311109374428374608
5.70570000000000021600, 	 0.11903591190595348703, 	 1.27815361132282201417, 	 2.48318218440374893774
5.70680000000000031690, 	 0.14331984977295997297, 	 1.28541546711839105299, 	 2.47343698400319977893
5.70790000000000041780, 	 0.16773107578997334399, 	 1.29296141725620317153, 	 2.46387629266911289960
5.70900000000000051870, 	 0.19224676387045513959, 	 1.30078461428041824988, 	 2.45450069017791427939
5.71010000000000061959, 	 0.21684345848827379921, 	 1.30887704439038321524, 	 2.44531056136749613827
5.71119999999999983231, 	 0.24149716208446800336, 	 1.31722952733292220096, 	 2.43630608361992484490
5.71229999999999993321, 	 0.26618344936621879393, 	 1.32583172788570036182, 	 2.42748725472352688826
5.71340000000000003411, 	 0.29087771353899383175, 	 1.33467216811003064336, 	 2.41885384623239962920
5.71450000000000013500, 	 0.31555565745586078297, 	 1.34373825233964616643, 	 2.41040541996021140392
5.71560000000000023590, 	 0.34019403494940270161, 	 1.35301629142026835773, 	 2.40214124931287686948
5.71670000000000033680, 	 0.36477283944770028112, 	 1.36249154168170072410, 	 2.39406033883134972129
5.71780000000000043769, 	 0.38927861068093733143, 	 1.37214825563942133257, 	 2.38616131535443853906
5.71890000000000053859, 	 0.41370945552930876721, 	 1.38196975184282955240, 	 2.37844255222776679304
5.72000000000000063949, 	 0.43808169532634899657, 	 1.39193851363917597830, 	 2.37090231490805170012
5.72109999999999985221, 	 0.46243810788777595100, 	 1.40203633346203249133, 	 2.36353848007580724655
5.72219999999999995310, 	 0.48685762848804015057, 	 1.41224455376487356695, 	 2.35634830674883133383
5.72330000000000005400, 	 0.51146522321499499064, 	 1.42254445038314636385, 	 2.34932842427392118978
5.72440000000000015490, 	 0.53644082066150555743, 	 1.43291781915057514496, 	 2.34247574315842532755
5.72550000000000025580, 	 0.56202652442585387949, 	 1.44334782952156870373, 	 2.33578782062031686806
5.72660000000000035669, 	 0.58853174592374557506, 	 1.45382021698472851945, 	 2.32926176442500754149
5.72770000000000045759, 	 0.61633087625630378348, 	 1.46432486941097939059, 	 2.32289415501863150126
5.72880000000000055849, 	 0.64585565749587980910, 	 1.47485781285240835636, 	 2.31668126303078514283
5.72990000000000065938, 	 0.67760119333205615089, 	 1.48542358055724843524, 	 2.31061924671914065144
5.73099999999999987210, 	 0.71211664493006388010, 	 1.49603791949271003325, 	 2.30470430097893297372
5.73209999999999997300, 	 0.74999076988502388907, 	 1.50673073232083387651, 	 2.29893280732252858201
5.73320000000000007390, 	 0.79183707161064087465, 	 1.51754912310684852983, 	 2.29330152890105676278
5.73430000000000017479, 	 0.83827393022600249495, 	 1.52856047264594319124, 	 2.28780787547797936909
5.73540000000000027569, 	 0.88972156163615989666, 	 1.53985535486126035032, 	 2.28245024915846261848
5.73650000000000037659, 	 0.94780211392720425945, 	 1.55155009717160052851, 	 2.27722847302083364340
5.73760000000000047748, 	 1.01118814781545940384, 	 1.56378882663689289245, 	 2.27214429906902370959
5.73870000000000057838, 	 1.08136779721471731897, 	 1.57674499508872334452, 	 2.26720198696205699207
5.73980000000000067928, 	 1.15966091794951875471, 	 1.59062305358113387221, 	 2.26240893962975109233
5.74089999999999989200, 	 1.24636876431022525225, 	 1.60565651934081987662, 	 2.25777637640945583186
5.74199999999999999289, 	 1.34171182842331915275, 	 1.62210437613220670450, 	 2.25332002118121810241
5.74310000000000009379, 	 1.44614012421894488902, 	 1.64025273589800257845, 	 2.24906078137085296831
5.74420000000000019469, 	 1.55995188691388797508, 	 1.66041697930452070153, 	 2.24502537705732008178
5.74530000000000029559, 	 1.68334469269241115974, 	 1.68294011764155282407, 	 2.24124680664404785091
5.74640000000000039648, 	 1.81653139407586383669, 	 1.70818892437583480515, 	 2.23776483223345090678
5.74750000000000049738, 	 1.95967159341388486027, 	 1.73654926096598538621, 	 2.23462644808011390296
5.74860000000000059828, 	 2.11290446772589168845, 	 1.76842095443690938694, 	 2.23188579548945975617
5.74970000000000069917, 	 2.27630645438658740787, 	 1.80421272678690436386, 	 2.22960447710709797065
5.75079999999999991189, 	 2.44988907061588090386, 	 1.84433738816650194536, 	 2.22785154391349449199
5.75190000000000001279, 	 2.63361309935719933861, 	 1.88920612684766098255, 	 2.22670323932646718745
5.75300000000000011369, 	 2.82740790784396178736, 	 1.93913440490986777043, 	 2.22624346928819649705
5.75410000000000021458, 	 3.03117097922527500842, 	 1.99445696809666106475, 	 2.22656240158254936645
5.75520000000000031548, 	 3.24477668790242379515, 	 2.05563809756874027457, 	 2.22775593098560964478
5.75630000000000041638, 	 3.46808057561085369969, 	 2.12303668885948493283, 	 2.22992481713023504852
5.75740000000000051728, 	 3.70090552854379195580, 	 2.19698883750341344978, 	 2.23317550626512817402
5.75850000000000061817, 	 3.94304529366943290469, 	 2.27780436012443709970, 	 2.23760909718131095758
5.75960000000000071907, 	 4.19426827920215217205, 	 2.36576557825226707621, 	 2.24325504010888732154
5.76069999999999993179, 	 4.45432123346654318397, 	 2.46112498319688866033, 	 2.24949492939975481676
5.76180000000000003268, 	 4.72293163133415561106, 	 2.56410327007275284927, 	 2.25664212063594193936
5.76290000000000013358, 	 4.99981012520875900407, 	 2.67488728164335887172, 	 2.26610724874231683756
5.76400000000000023448, 	 5.28465343894484096410, 	 2.79362671569835985252, 	 2.27843295184539629261
5.76510000000000033538, 	 5.57714657593041795991, 	 2.92043199410993592480, 	 2.29283065826320697767
5.76620000000000043627, 	 5.87696557121960605485, 	 3.05537732386637239657, 	 2.30907859862881759128
5.76730000000000053717, 	 6.18377516748837408045, 	 3.19850489674873905699, 	 2.32703702487891428419
5.76840000000000063807, 	 6.49723017257522794665, 	 3.34982490511909825059, 	 2.34698154704953054761
5.76949999999999985079, 	 6.81697882046359282526, 	 3.50931273208733474078, 	 2.36910941654317763749
5.77059999999999995168, 	 7.14266506402654233199, 	 3.67690628286470833075, 	 2.39349511556236871357
5.77170000000000005258, 	 7.47392959268623435776, 	 3.85250547090910666626, 	 2.42012906825167650737
5.77280000000000015348, 	 7.81040833357227803901, 	 4.03597355304620553085, 	 2.44902445835291704412
5.77390000000000025437, 	 8.15173350518681871790, 	 4.22713899032060602678, 	 2.48026234190196692708
5.77500000000000035527, 	 8.49753871364391244470, 	 4.42579701808910375149, 	 2.51392168301604401748
5.77610000000000045617, 	 8.84745413793422308402, 	 4.63171121913236483181, 	 2.55005703656867677154
5.77720000000000055707, 	 9.20110584199773562375, 	 4.84461532436298281112, 	 2.58870587465260815208
5.77830000000000065796, 	 9.55811557223143104522, 	 5.06421527699866125261, 	 2.62989118411356326277
5.77939999999999987068, 	 9.91810105126142005361, 	 5.29019153333366087821, 	 2.67362219239453979824
5.78049999999999997158, 	 10.28067619864584081313, 	 5.52220137721579984458, 	 2.71989816712494292261
5.78160000000000007248, 	 10.64545115418599152690, 	 5.75988113629919951109, 	 2.76871018182229677862
5.78270000000000017337, 	 11.01203216070672041837, 	 6.00284832657986466842, 	 2.82004208314511428668
5.78380000000000027427, 	 11.38002141072157691326, 	 6.25070374391029925931, 	 2.87387105127081143863
5.78490000000000037517, 	 11.74901617737879178094, 	 6.50303351708811039344, 	 2.93017152908819999979
5.78600000000000047606, 	 12.11860847024077258993, 	 6.75941113181799035914, 	 2.98888592118327656166
5.78710000000000057696, 	 12.48838834820398879799, 	 7.01939943285930745276, 	 3.04995306529780529914
5.78820000000000067786, 	 12.85794096475832049009, 	 7.28255259396544740724, 	 3.11332448350274271220
5.78929999999999989058, 	 13.22684760343483745260, 	 7.54841797666750746743, 	 3.17895587676386970344
5.79039999999999999147, 	 13.59468555836335390552, 	 7.81653788703793406256, 	 3.24680027998703968350
5.79150000000000009237, 	 13.96102794685393533314, 	 8.08645131051497756403, 	 3.31680500532737720931
5.79260000000000019327, 	 14.32544272833488818719, 	 8.35769565609082043522, 	 3.38891103165594920199
5.79370000000000029416, 	 14.68749747870014488171, 	 8.62980848649615417401, 	 3.46305352710511771264
5.79480000000000039506, 	 15.04675628369188800093, 	 8.90232918272881512678, 	 3.53916273357525135168
5.79590000000000049596, 	 15.40278122283441497586, 	 9.17480046020141948304, 	 3.61716485027195666646
5.79700000000000059686, 	 15.75513428186763853489, 	 9.44676977551823782164, 	 3.69698278352715137274
5.79810000000000069775, 	 16.10337785363795504168, 	 9.71779067622753167655, 	 3.77853674475595235904
5.79919999999999991047, 	 16.44707667084130164881, 	 9.98742446890923751823, 	 3.86174520929145526082
5.80030000000000001137, 	 16.78579870629626569212, 	 10.25524408468386283744, 	 3.94652442312614271103
5.80140000000000011227, 	 17.11911590505042113364, 	 10.52083894806330022220, 	 4.03278887121353424305
5.80250000000000021316, 	 17.44660523452762035390, 	 10.78378318208609876194, 	 4.12045113597295831198
5.80360000000000031406, 	 17.76784992326201617630, 	 11.04366958501268136672, 	 4.20942275420289124810
5.80470000000000041496, 	 18.08244071106527783854, 	 11.30010789315880082029, 	 4.29961504596215693397
5.80580000000000051585, 	 18.38997707574616313764, 	 11.55271976979726922252, 	 4.39094021734565131965
5.80690000000000061675, 	 18.69006848275251542191, 	 11.80113975804266956970, 	 4.48330938420871305539
5.80800000000000071765, 	 18.98233565238806974662, 	 12.04501587065131040788, 	 4.57663182474553842383
5.80909999999999993037, 	 19.26641181868751218076, 	 12.28400983852257510875, 	 4.67081579100080013234
5.81020000000000003126, 	 19.54194395625508562375, 	 12.51779743056383153998, 	 4.76576876245129543719
5.81130000000000013216, 	 19.80859395797355659852, 	 12.74606881455784623824, 	 4.86139777450572729833
5.81240000000000023306, 	 20.06603974966697734317, 	 12.96852900391050411599, 	 4.95760948741893425762
5.81350000000000033396, 	 20.31397632981014211850, 	 13.18489819354047476452, 	 5.05431116561180449054
5.81460000000000043485, 	 20.55211672347477858125, 	 13.39491197145632206400, 	 5.15141082997679156108
5.81570000000000053575, 	 20.78019312190140155394, 	 13.59832152223824586201, 	 5.24881719824815728970
5.81680000000000063665, 	 20.99795692805919955504, 	 13.79489382918537110356, 	 5.34643964801141535759
5.81789999999999984936, 	 21.20518066829535186457, 	 13.98441186740921082787, 	 5.44418828183433856083
5.81899999999999995026, 	 21.40165793359974344412, 	 14.16667478484370867875, 	 5.54197420559285003350
5.82010000000000005116, 	 21.58720221043645892678, 	 14.34149807363601425436, 	 5.63970892559370184927
5.82120000000000015206, 	 21.76164747548527955701, 	 14.50871370581772445973, 	 5.73730474577616345044
5.82230000000000025295, 	 21.92484946654023403312, 	 14.66817022614879206799, 	 5.83467508739844387122
5.82340000000000035385, 	 22.07668662962416306073, 	 14.81973282229411736921, 	 5.93173460972013444348
5.82450000000000045475, 	 22.21706049403126925768, 	 14.96328336448118179192, 	 6.02839931366527270740
5.82560000000000055564, 	 22.34589558998802871770, 	 15.09872041149976418239, 	 6.12458664968337362922
5.82670000000000065654, 	 22.46313907700567114034, 	 15.22595918812172932633, 	 6.22021563384250697482
5.82779999999999986926, 	 22.56876046056316553745, 	 15.34493153916489127653, 	 6.31520697096199867815
5.82889999999999997016, 	 22.66275093497762327388, 	 15.45558586173656046014, 	 6.40948318212192180710
5.83000000000000007105, 	 22.74512200844825215995, 	 15.55788701356206260584, 	 6.50296873385798246403
5.83110000000000017195, 	 22.81590697918850807469, 	 15.65181619770399912284, 	 6.59559019638650756434
5.83220000000000027285, 	 22.87515976525782690487, 	 15.73737082989664770594, 	 6.68727644611232729943
5.83330000000000037375, 	 22.92295291499622322817, 	 15.81456436233472473418, 	 6.77795857780140931226
5.83440000000000047464, 	 22.95937714648573901854, 	 15.88342606066041717838, 	 6.86757004691564976184
5.83550000000000057554, 	 22.98454191543724078883, 	 15.94400083024375547325, 	 6.95604685906091368963
5.83660000000000067644, 	 22.99857895211261649138, 	 15.99634961322488813096, 	 7.04332778588492125493
5.83769999999999988916, 	 23.00163710900567437534, 	 16.04054535960245075898, 	 7.12935435534855521666
5.83879999999999999005, 	 22.99387934649822540223, 	 16.07667626740088451243, 	 7.21407102117917542472
5.83990000000000009095, 	 22.97548175075428744663, 	 16.10484537810134497704, 	 7.29742538161884102266
5.84100000000000019185, 	 22.94663341210119256175, 	 16.12516912144656089367, 	 7.37936838772492453842
5.84210000000000029274, 	 22.90753650099851412847, 	 16.13777713084619591655, 	 7.45985392605739416894
5.84320000000000039364, 	 22.85840605032896277748, 	 16.14281153036464289130, 	 7.53884010542760218954
5.84430000000000049454, 	 22.79946927224164099357, 	 16.14042639460608441482, 	 7.61629020917264387691
5.84540000000000059543, 	 22.73096461708054505380, 	 16.13078715257442041775, 	 7.69216185395942009251
5.84650000000000069633, 	 22.65314076536031961950, 	 16.11406993494926709332, 	 7.76641348489585769954
5.84759999999999990905, 	 22.56625513409077399274, 	 16.09046088981324729161, 	 7.83901061289121425801
5.84870000000000000995, 	 22.47054797446438811903, 	 16.06015544685887519449, 	 7.90992600394813116793
5.84980000000000011084, 	 22.36628755132379708925, 	 16.02335577609751737782, 	 7.97913793125774439829
5.85090000000000021174, 	 22.25370270335090339131, 	 15.98026092433150147087, 	 8.04662860152692616111
5.85200000000000031264, 	 22.13302745214669897678, 	 15.93110007014722739882, 	 8.11238322521485422101
5.85310000000000041354, 	 22.00455120549740684055, 	 15.87612334371983990877, 	 8.17638958757410527767
5.85420000000000051443, 	 21.86866168801358867313, 	 15.81556987662667168593, 	 8.23863784289859424348
5.85530000000000061533, 	 21.72574614180358310023, 	 15.74963925520214402809, 	 8.29912038517344186062
5.85640000000000071623, 	 21.57615187022339142686, 	 15.67857112394007224054, 	 8.35783186899845276230
5.85749999999999992895, 	 21.42019486448989695759, 	 15.60260643809810154892, 	 8.41476944100483592592
5.85860000000000002984, 	 21.25817342710112001214, 	 15.52198898243110569695, 	 8.46993305737757395946
5.85970000000000013074, 	 21.09037838054749158800, 	 15.43696483030328536756, 	 8.52332569519403726588
5.86080000000000023164, 	 20.91709857291703400506, 	 15.34778198982124486349, 	 8.57495335547880088711
5.86190000000000033253, 	 20.73862308548368105221, 	 15.25468969081153147727, 	 8.62482488019149684533
5.86300000000000043343, 	 20.55523715970010556475, 	 15.15793755274698462188, 	 8.67295165711509596917
5.86410000000000053433, 	 20.36724121509143614617, 	 15.05777466690681798411, 	 8.71934732969110193324
5.86520000000000063523, 	 20.17499274716559298781, 	 14.95444867121461918202, 	 8.76402758150117477953
5.86629999999999984794, 	 19.97879740459006114861, 	 14.84820488415251737990, 	 8.80700985736521957392
5.86739999999999994884, 	 19.77892600017962365655, 	 14.73928552801931779470, 	 8.84831311640274975616
5.86850000000000004974, 	 19.57563688694898829112, 	 14.62792911897529890553, 	 8.88795799071491998689
5.86960000000000015064, 	 19.36918551699958612744, 	 14.51436998921500709514, 	 8.92596693565487164790
5.87070000000000025153, 	 19.15982687317856303366, 	 14.39883772833463915219, 	 8.96236326003759842251
5.87180000000000035243, 	 18.94781346269108723845, 	 14.28155659010231559591, 	 8.99717208826531233967
5.87290000000000045333, 	 18.73339832451685893489, 	 14.16274487111550683949, 	 9.03041960400436138912
5.87400000000000055422, 	 18.51683117105896414500, 	 14.04261434164713051587, 	 9.06213286523363770186
5.87510000000000065512, 	 18.29835621630841302476, 	 13.92136962681199285896, 	 9.09233953034783581870
5.87619999999999986784, 	 18.07821166053719963429, 	 13.79920774273309191926, 	 9.12106852825018066255
5.87729999999999996874, 	 17.85662908877170451660, 	 13.67631771723553768538, 	 9.14834909128565243464
5.87840000000000006963, 	 17.63383198830656439782, 	 13.55288033920203893956, 	 9.17421115481553783866
5.87950000000000017053, 	 17.41003838409764981066, 	 13.42906803699804996199, 	 9.19868632442821443362
5.88060000000000027143, 	 17.18545840051886486322, 	 13.30504471882708372732, 	 9.22180563196480385102
5.88170000000000037232, 	 16.96029323706012092998, 	 13.18096562134268268096, 	 9.24360036667549067602
5.88280000000000047322, 	 16.73473689566189293032, 	 13.05697728550360281474, 	 9.26410188129355915976
5.88390000000000057412, 	 16.50897522333647771120, 	 12.93321755803643924310, 	 9.28334199366647006002
5.88500000000000067502, 	 16.28318529492701927097, 	 12.80981554517464005016, 	 9.30135267351666250590
5.88609999999999988773, 	 16.05753546047305846400, 	 12.68689160083910749677, 	 9.31816448993616752716
5.88719999999999998863, 	 15.83219126858879022279, 	 12.56455736310731730043, 	 9.33380728378036828019
5.88830000000000008953, 	 15.60738365962206763982, 	 12.44291730853594657447, 	 9.34831076828684714997
5.88940000000000019043, 	 15.38326201455845421151, 	 12.32206646247043657638, 	 9.36170465556945252672
5.89050000000000029132, 	 15.15992953463308978712, 	 12.20208922302260390325, 	 9.37401818896104188639
5.89160000000000039222, 	 14.93748517571390799219, 	 12.08306354470591870154, 	 9.38528061269906999087
5.89270000000000049312, 	 14.71602876239129287228, 	 11.96505942686417434118, 	 9.39551990318582141981
5.89380000000000059401, 	 14.49565856222313620094, 	 11.84813912928707146932, 	 9.40476230009084623873
5.89490000000000069491, 	 14.27646893082990331436, 	 11.73235729399433147080, 	 9.41303278859328784733
5.89599999999999990763, 	 14.05854871332917888083, 	 11.61776097461515000475, 	 9.42035599234358045351
5.89710000000000000853, 	 13.84198026786467572435, 	 11.50438969803689914784, 	 9.42675623891557457057
5.89820000000000010942, 	 13.62683892585974732015, 	 11.39227559641922304934, 	 9.43225788310900981060
5.89930000000000021032, 	 13.41319270801577978602, 	 11.28144361332434186806, 	 9.43688454089211781195
5.90040000000000031122, 	 13.20110230616698032691, 	 11.17191177937509394269, 	 9.44065829148770241375
5.90150000000000041211, 	 12.99062120282096799428, 	 11.06369152433594216234, 	 9.44359997129816086670
5.90260000000000051301, 	 12.78179586317074623025, 	 10.95678802101294913030, 	 9.44573041928834200576
5.90370000000000061391, 	 12.57466598805554980345, 	 10.85120053057280209430, 	 9.44706992032873138498
5.90480000000000071481, 	 12.36926475046156959081, 	 10.74692273981131585003, 	 9.44763766299193541442
5.90589999999999992752, 	 12.16561892761770202753, 	 10.64394311596489117733, 	 9.44745149916503734744
5.90700000000000002842, 	 11.96374910874878239042, 	 10.54224527280321410672, 	 9.44652805084776403532
5.90810000000000012932, 	 11.76366997922650448061, 	 10.44180832577959527896, 	 9.44488287469543408292
5.90920000000000023022, 	 11.56539062128637951332, 	 10.34260724000717424076, 	 9.44253058661739963497
5.91030000000000033111, 	 11.36891473290813259212, 	 10.24461316997266280282, 	 9.43948494346791910914
5.91140000000000043201, 	 11.17423805900066469121, 	 10.14779378951350174987, 	 9.43575886759042070651
