x [cm], 	 0.25592592592592589007, 	 34.54999999999999715783, 	 68.84407407407405798949
0.00000000000000000000, 	 0.00000000000000000000, 	 0.00000000000000000000, 	 0.00000000000000000000
5.70020000000000059970, 	 3.03079221569167467365, 	 9.72526589583361733560, 	 18.18170779479399712386
5.70130000000000070060, 	 2.97494109142140628066, 	 9.67134312507074334064, 	 18.14053427966851472775
5.70239999999999991331, 	 2.92299077521598205109, 	 9.61960572896721721747, 	 18.09943956695066802354
5.70350000000000001421, 	 2.87513728091772868822, 	 9.57005787629267601346, 	 18.05843204078552233227
5.70460000000000011511, 	 2.83260796767580647071, 	 9.52270365217953518311, 	 18.01752017913243975045
5.70570000000000021600, 	 2.79895307278102745130, 	 9.47754702374987800795, 	 17.97671254836624044060
5.70680000000000031690, 	 2.78060689237482971947, 	 9.43459180159346466610, 	 17.93601780710292104004
5.70790000000000041780, 	 2.78611303412320143735, 	 9.39384160614837249170, 	 17.89544469830294559642
5.70900000000000051870, 	 2.82409019471068178930, 	 9.35529989614911094975, 	 17.85500206681872370496
5.71010000000000061959, 	 2.90420294008156520960, 	 9.31897027550840206800, 	 17.81469884144032178597
5.71119999999999983231, 	 3.03517646239355265436, 	 9.28485761092965589114, 	 17.77454402827247648133
5.71229999999999993321, 	 3.19642988364389113443, 	 9.25297086955373515593, 	 17.73454670671738497845
5.71340000000000003411, 	 3.37802939481180652948, 	 9.22332877243086279861, 	 17.69471602626193629249
5.71450000000000013500, 	 3.58996014023973453178, 	 9.19596912105127906045, 	 17.65506120179251681179
5.71560000000000023590, 	 3.82635049320857900668, 	 9.17096202962554407634, 	 17.61559150644282567555
5.71670000000000033680, 	 4.08276180523595755290, 	 9.14842623477119509801, 	 17.57631626235902544408
5.71780000000000043769, 	 4.35543191860277634220, 	 9.12854585898926629284, 	 17.53724483146961077296
5.71890000000000053859, 	 4.64210387046724903826, 	 9.11158396629390487931, 	 17.49838661080250190594
5.72000000000000063949, 	 4.94171181703398687546, 	 9.09789186745184608185, 	 17.45975103901778169302
5.72109999999999985221, 	 5.25421657061346003559, 	 9.08790942241827792714, 	 17.42134762365425260100
5.72219999999999995310, 	 5.57970361063106246036, 	 9.08215659119163731816, 	 17.38318600479770026368
5.72330000000000005400, 	 5.91808555819521586727, 	 9.08122722205162169473, 	 17.34527607700703910609
5.72440000000000015490, 	 6.26895305189037710392, 	 9.08577384532307164022, 	 17.30762819488663595280
5.72550000000000025580, 	 6.63170563494819553796, 	 9.09649069676801147466, 	 17.27025348786283487357
5.72660000000000035669, 	 7.00576743854294381464, 	 9.11409570597997031882, 	 17.23316430534955046028
5.72770000000000045759, 	 7.39062495542711594965, 	 9.13931284627793871778, 	 17.19637480395530459987
5.72880000000000055849, 	 7.78583854962858623594, 	 9.17285594544930660277, 	 17.15990167600564575423
5.72990000000000065938, 	 8.19100527451137594426, 	 9.21541462269319033851, 	 17.12376503496581037211
5.73099999999999987210, 	 8.60573959797920551296, 	 9.26764262269894700808, 	 17.08798946288203524091
5.73209999999999997300, 	 9.02965946748146564005, 	 9.33014854351608846628, 	 17.05260468827813724602
5.73320000000000007390, 	 9.46237024005649196567, 	 9.40348880599524505897, 	 17.01764639788517285979
5.73430000000000017479, 	 9.90345246623813402209, 	 9.48816265038213657590, 	 16.98315719555836267318
5.73540000000000027569, 	 10.35245817941638435400, 	 9.58460892910267858724, 	 16.94918735821442723477
5.73650000000000037659, 	 10.80891754699599260903, 	 9.69320446113575862057, 	 16.91579537982556047382
5.73760000000000047748, 	 11.27235246795312129109, 	 9.81426371671610553449, 	 16.88304809633241987399
5.73870000000000057838, 	 11.74229371563074764140, 	 9.94803960561373301630, 	 16.85102099815979315167
5.73980000000000067928, 	 12.21829481898468827694, 	 10.09472514780487628627, 	 16.81979797181568159203
5.74089999999999989200, 	 12.69993935224497150216, 	 10.25445582064675775769, 	 16.78947346151607433740
5.74199999999999999289, 	 13.18683880337778724368, 	 10.42731238966451812189, 	 16.76013536872541465073
5.74310000000000009379, 	 13.67863711866154119434, 	 10.61332405552775703939, 	 16.73188687297458088210
5.74420000000000019469, 	 14.17500244665948194722, 	 10.81247177766658040809, 	 16.70484087692332053621
5.74530000000000029559, 	 14.67561953888844783478, 	 11.02469165720938981679, 	 16.67911473945597577995
5.74640000000000039648, 	 15.18018541685295019761, 	 11.24987832160227618772, 	 16.65482781240953613633
5.74750000000000049738, 	 15.68840873102369393166, 	 11.48788844092982941447, 	 16.63210033554552680357
5.74860000000000059828, 	 16.20001036897661705893, 	 11.73854286918782818816, 	 16.61105314832836299388
5.74970000000000069917, 	 16.71472438803320414991, 	 12.00162287186446263831, 	 16.59180556024371000490
5.75079999999999991189, 	 17.23229901666876884292, 	 12.27674637632282461652, 	 16.57447497286783644199
5.75190000000000001279, 	 17.75249719971057871248, 	 12.56374687283481073052, 	 16.55917592633951684888
5.75300000000000011369, 	 18.27509558920971954876, 	 12.86226599935947234599, 	 16.54601886608431371428
5.75410000000000021458, 	 18.79988740607916142267, 	 13.17209714595422909156, 	 16.53510920765895519935
5.75520000000000031548, 	 19.32668011848046063506, 	 13.49293921220799319372, 	 16.52654598273549524379
5.75630000000000041638, 	 19.85529579678366118856, 	 13.82443906237282860161, 	 16.52042088325998747678
5.75740000000000051728, 	 20.38556996012659539019, 	 14.16623393666533559099, 	 16.51681833493343631858
5.75850000000000061817, 	 20.91734981824665240424, 	 14.51794918145508184182, 	 16.51581534426722086550
5.75960000000000071907, 	 21.45049252890660440585, 	 14.87919794083282809538, 	 16.51748097437589990477
5.76069999999999993179, 	 21.98486385108969187741, 	 15.24958370357041026466, 	 16.52187579836013497925
5.76180000000000003268, 	 22.52033763027661450451, 	 15.62870132836453862524, 	 16.52905113878825105189
5.76290000000000013358, 	 23.05679618530557917211, 	 16.01613844116159413034, 	 16.53904971365455267573
5.76400000000000023448, 	 23.59413122386633077099, 	 16.41147659007611991910, 	 16.55190601061556066043
5.76510000000000033538, 	 24.13224471557835215663, 	 16.81429231184998229764, 	 16.56764546602543219933
5.76620000000000043627, 	 24.67104926315679946924, 	 17.22415810964931992544, 	 16.58628457368232744784
5.76730000000000053717, 	 25.21046779764322209871, 	 17.64064336164211965752, 	 16.60572094146306199036
5.76840000000000063807, 	 25.75043269615379770698, 	 18.06331516331033881784, 	 16.62503569802933967026
5.76949999999999985079, 	 26.29088426164835112786, 	 18.49173911288775684625, 	 16.64592541414076620754
5.77059999999999995168, 	 26.83177003071811483892, 	 18.92548004866921829148, 	 16.67193094758215465845
5.77170000000000005258, 	 27.37304363763347225813, 	 19.36410273745545396196, 	 16.70707646503824861384
5.77280000000000015348, 	 27.91466324559176470643, 	 19.80717245979139207179, 	 16.74663816203940314153
5.77390000000000025437, 	 28.45659052921803322533, 	 20.25425540459808004812, 	 16.78934427936179574203
5.77500000000000035527, 	 28.99878494777431114926, 	 20.70491891717439258969, 	 16.83305944010999155580
5.77610000000000045617, 	 29.54120557579300054840, 	 21.15873187752704254194, 	 16.87849649907687776818
5.77720000000000055707, 	 30.08381587221629871465, 	 21.61526553904311498400, 	 16.92633164494129616173
5.77830000000000065796, 	 30.62658497444026295398, 	 22.07409487843520778938, 	 16.97680198114982985658
5.77939999999999987068, 	 31.16948567462101848946, 	 22.53480014528713581967, 	 17.03001861252794313373
5.78049999999999997158, 	 31.71249128194799737912, 	 22.99696820348358983210, 	 17.08544056793920162818
5.78160000000000007248, 	 32.25557287240002324324, 	 23.46019343178712901477, 	 17.14289507021117486829
5.78270000000000017337, 	 32.79869889768097124261, 	 23.92407821608362894494, 	 17.20249392842937652404
5.78380000000000027427, 	 33.34183554753613520916, 	 24.38823321666887267156, 	 17.26431471836770370487
5.78490000000000037517, 	 33.88493571648990609901, 	 24.85227758544129983420, 	 17.32837154136310076069
5.78600000000000047606, 	 34.42794673504480584825, 	 25.31583922679708820169, 	 17.39463754541286633071
5.78710000000000057696, 	 34.97081265803370087042, 	 25.77855511168938207334, 	 17.46295239701426282863
5.78820000000000067786, 	 35.51347175414881718325, 	 26.24007162874840659583, 	 17.53318180899042388887
5.78929999999999989058, 	 36.05585470792313174115, 	 26.70004497532312726094, 	 17.60525507794494970426
5.79039999999999999147, 	 36.59788324963248129507, 	 27.15814418168732657932, 	 17.67913049041150941321
5.79150000000000009237, 	 37.13946920078117841513, 	 27.61404285607259723179, 	 17.75476902987953309321
5.79260000000000019327, 	 37.68051374855304658240, 	 28.06742835560229565317, 	 17.83212269376665304321
5.79370000000000029416, 	 38.22090618817575347066, 	 28.51800095010280955421, 	 17.91113380874429239498
5.79480000000000039506, 	 38.76052502335771521302, 	 28.96547307050100172887, 	 17.99174026491863287447
5.79590000000000049596, 	 39.29923792565767826090, 	 29.40956970140528525803, 	 18.07387619069840667407
5.79700000000000059686, 	 39.83690073730455338819, 	 29.85002871370691579500, 	 18.15747323835048021579
5.79810000000000069775, 	 40.37335776661543462751, 	 30.28660113332423620136, 	 18.24246233187643539964
5.79919999999999991047, 	 40.90844181434012938325, 	 30.71905134548981664011, 	 18.32877419738836977103
5.80030000000000001137, 	 41.44197296028851695837, 	 31.14715723210819930955, 	 18.41634277982128153894
5.80140000000000011227, 	 41.97375754159414640299, 	 31.57071023734963688412, 	 18.50510450302124354494
5.80250000000000021316, 	 42.50358807256994708723, 	 31.98951535885436214812, 	 18.59499941051672422532
5.80360000000000031406, 	 43.03124382214405585501, 	 32.40339106480126218912, 	 18.68596999083045417933
5.80470000000000041496, 	 43.55649151166861088313, 	 32.81216913818923330837, 	 18.77796135477152006388
5.80580000000000051585, 	 44.07908583368138977221, 	 33.21569444982908692054, 	 18.87092120451760024480
5.80690000000000061675, 	 44.59876979538626073918, 	 33.61382466229130017155, 	 18.96479971686176568824
5.80800000000000071765, 	 45.11527503033831720813, 	 34.00642986814274593144, 	 19.05954945485994045384
5.80909999999999993037, 	 45.62832219736049665926, 	 34.39339216687810107942, 	 19.15512530968471338610
5.81020000000000003126, 	 46.13762151800246869016, 	 34.77460518575017545118, 	 19.25148445947402819911
5.81130000000000013216, 	 46.64287333626135279019, 	 35.14997355019549019062, 	 19.34858633297542951368
5.81240000000000023306, 	 47.14376874724871413491, 	 35.51941230982800590255, 	 19.44639256980367747474
5.81350000000000033396, 	 47.63999036549024168608, 	 35.88284632608367274997, 	 19.54486697275740070268
5.81460000000000043485, 	 48.13121325672420169894, 	 36.24020962757447250624, 	 19.64397545016584345490
5.81570000000000053575, 	 48.61710694865386273023, 	 36.59144473909323380667, 	 19.74368594776212404440
5.81680000000000063665, 	 49.09733503922785047280, 	 36.93650199004085266097, 	 19.84396843760230311204
5.81789999999999984936, 	 49.57155441360845316012, 	 37.27533880785296815930, 	 19.94479479601407945211
5.81899999999999995026, 	 50.03941591510605491067, 	 37.60791900181586555618, 	 20.04613839184036550023
5.82010000000000005116, 	 50.50056785912117618409, 	 37.93421204253203171675, 	 20.14797439806141099439
5.82120000000000015206, 	 50.95465815077278648459, 	 38.25419234223395648087, 	 20.25027969065010324812
5.82230000000000025295, 	 51.40133591668011803222, 	 38.56783854101023933936, 	 20.35303341293556655955
5.82340000000000035385, 	 51.84025045544338894388, 	 38.87513280358921718971, 	 20.45621993737005439584
5.82450000000000045475, 	 52.27104982540651434419, 	 39.17606013065977066390, 	 20.55981661465737175831
5.82560000000000055564, 	 52.69338151406775949681, 	 39.47060768830977650623, 	 20.66379525525448102030
5.82670000000000065654, 	 53.10689662276539024788, 	 39.75876415938077457213, 	 20.76813265107808703647
5.82779999999999986926, 	 53.51125139650218898169, 	 40.04051912103055599346, 	 20.87281195023577851089
5.82889999999999997016, 	 53.90610809353382393283, 	 40.31586245290123571294, 	 20.97782026717615266875
5.83000000000000007105, 	 54.29113560058438991973, 	 40.58478377946311610458, 	 21.08314623748186633634
5.83110000000000017195, 	 54.66600875681562854425, 	 40.84727194860500532059, 	 21.18877851411119905833
5.83220000000000027285, 	 55.03040931154298931460, 	 41.10331454764146741354, 	 21.29470509435424219191
5.83330000000000037375, 	 55.38402778487917998973, 	 41.35289745820667661746, 	 21.40091313825250196601
5.83440000000000047464, 	 55.72656516068619225734, 	 41.59600445235479782013, 	 21.50738900390395258455
5.83550000000000057554, 	 56.05773402835555430102, 	 41.83261683266967168038, 	 21.61411833743424537602
5.83660000000000067644, 	 56.37725923265082172975, 	 42.06271311885900843208, 	 21.72108614192743658577
5.83769999999999988916, 	 56.68487822972716827508, 	 42.28626878239422381967, 	 21.82827680110189305651
5.83879999999999999005, 	 56.98034133599336570342, 	 42.50325602982228190285, 	 21.93567405883109344700
5.83990000000000009095, 	 57.26341198946551713789, 	 42.71364363480328307787, 	 22.04326096520809485924
5.84100000000000019185, 	 57.53386709843560709032, 	 42.91739681872449807543, 	 22.15101980142890525372
5.84210000000000029274, 	 57.79149746878304227948, 	 43.11447717969056725451, 	 22.25893199398756649998
5.84320000000000039364, 	 58.03610807672148297343, 	 43.30484266956715799779, 	 22.36697802598760276283
5.84430000000000049454, 	 58.26751851916217361804, 	 43.48844761845380446630, 	 22.47513735093155418099
5.84540000000000059543, 	 58.48556345003306944363, 	 43.66524280549906222859, 	 22.58338832836587783959
5.84650000000000069633, 	 58.69009291480998058432, 	 43.83517557443823875474, 	 22.69170814138932357196
5.84759999999999990905, 	 58.88097258078405360493, 	 43.99818999173211864218, 	 22.80007269913476619649
5.84870000000000000995, 	 59.05808387338737475147, 	 44.15422704478613979973, 	 22.90845660410811390761
5.84980000000000011084, 	 59.22132405125991283512, 	 44.30322487744862769432, 	 23.01683311231668227492
5.85090000000000021174, 	 59.37060620398893462379, 	 44.44511905979967991698, 	 23.12517410240974413682
5.85200000000000031264, 	 59.50585908671868651254, 	 44.57984288919500670545, 	 23.23345005334141788467
5.85310000000000041354, 	 59.62702700635978203536, 	 44.70732771958921603073, 	 23.34163003053356533201
5.85420000000000051443, 	 59.73406964458192902612, 	 44.82750331624350792481, 	 23.44968168114506212873
5.85530000000000061533, 	 59.82696181534312529493, 	 44.94029823298466652659, 	 23.55757123890163029500
5.85640000000000071623, 	 59.90569316297210633593, 	 45.04564020921191058733, 	 23.66526354373745277826
5.85749999999999992895, 	 59.97026780945955692914, 	 45.14345658384123538553, 	 23.77272208537049280608
5.85860000000000002984, 	 60.02070397985109195815, 	 45.23367472334442851434, 	 23.87990898430258468466
5.85970000000000013074, 	 60.05703360517472333413, 	 45.31622246101443352018, 	 23.98678505064143706704
5.86080000000000023164, 	 60.07930184872705581256, 	 45.39102854457362923313, 	 24.09330987515878064187
5.86190000000000033253, 	 60.08756654743046254907, 	 45.45802308918244705183, 	 24.19944186797575014225
5.86300000000000043343, 	 60.08189760769121789963, 	 45.51713803288787119072, 	 24.30513832602789392467
5.86410000000000053433, 	 60.06237639870503386419, 	 45.56830774328683730801, 	 24.41035554521570105635
5.86520000000000063523, 	 60.02909516215990493038, 	 45.61146910860720993242, 	 24.51504897649691372408
5.86629999999999984794, 	 59.98215643369472616087, 	 45.64656190026100546220, 	 24.61917319728686237568
5.86739999999999994884, 	 59.92167250362729902236, 	 45.67352983993426818188, 	 24.72268186662913436180
5.86850000000000004974, 	 59.84776469284356181788, 	 45.69232066947109416333, 	 24.82552787305073493940
5.86960000000000015064, 	 59.76056358123351230915, 	 45.70288658035734385976, 	 24.92766350342193604206
5.87070000000000025153, 	 59.66020684992925282586, 	 45.70518460873641686248, 	 25.02904058859315483687
5.87180000000000035243, 	 59.54683936242329878041, 	 45.69917701055684489120, 	 25.12961063065170108644
5.87290000000000045333, 	 59.42058877055963961311, 	 45.68483161656981650367, 	 25.22932491994413339853
5.87400000000000055422, 	 59.28159038435424577074, 	 45.66212216483031482994, 	 25.32813464869724029427
5.87510000000000065512, 	 59.12999792873078064304, 	 45.63102860681177475044, 	 25.42599102483530870700
5.87619999999999986784, 	 58.96599251565854160617, 	 45.59153621648294318902, 	 25.52284548878618153367
5.87729999999999996874, 	 58.78964747255957945526, 	 45.54362459230481618988, 	 25.61864969828809179830
5.87840000000000006963, 	 58.60101946728600097458, 	 45.48732493873207261004, 	 25.71335541123001178221
5.87950000000000017053, 	 58.40036265171642071437, 	 45.42264119114943099476, 	 25.80691498864593569351
5.88060000000000027143, 	 58.18802158188908180136, 	 45.34957447555311205178, 	 25.89928144622883365855
5.88170000000000037232, 	 57.96428474851112611077, 	 45.26814728038034729707, 	 25.99040852087145836435
5.88280000000000047322, 	 57.72937880034486113345, 	 45.17838922594678763289, 	 26.08025075470442644132
5.88390000000000057412, 	 57.48349093283338362426, 	 45.08033743953063776644, 	 26.16876357907922567847
5.88500000000000067502, 	 57.22679178152043988348, 	 44.97403658328563835767, 	 26.25590338924878608395
5.88609999999999988773, 	 56.95944767400127517476, 	 44.85953883576200951211, 	 26.34162761470756208837
5.88719999999999998863, 	 56.68162329619271133652, 	 44.73690386651216499558, 	 26.42589480009695535045
5.88830000000000008953, 	 56.39347606033911830536, 	 44.60619882454959395091, 	 26.50866470863749668752
5.88940000000000019043, 	 56.09521185904392837074, 	 44.46749834168242898613, 	 26.58989844754356113299
5.89050000000000029132, 	 55.78712205164192994289, 	 44.32088453604794864304, 	 26.66955860354704199722
5.89160000000000039222, 	 55.46940641558209250661, 	 44.16644699508822924372, 	 26.74760932520088374531
5.89270000000000049312, 	 55.14221949290068636174, 	 44.00428271900175047904, 	 26.82401641467516384409
5.89380000000000059401, 	 54.80569819828578914667, 	 43.83449601311630772216, 	 26.89874762016211562354
5.89490000000000069491, 	 54.45996993260494889455, 	 43.65719832721602244874, 	 26.97177246435590802776
5.89599999999999990763, 	 54.10516305628901534419, 	 43.47250805104572890514, 	 27.04306223813711440584
5.89710000000000000853, 	 53.74155139063697816937, 	 43.28055027965152135039, 	 27.11259000616626835267
5.89820000000000010942, 	 53.36938013290592408566, 	 43.08145655575816590499, 	 27.18033059829995679024
5.89930000000000021032, 	 52.98872383729426616128, 	 42.87536458650728832254, 	 27.24626059141804645947
5.90040000000000031122, 	 52.59967581315255813479, 	 42.66241792638450647246, 	 27.31035827887727762686
5.90150000000000041211, 	 52.20234958075395326205, 	 42.44276562043773992627, 	 27.37260368669832999444
5.90260000000000051301, 	 51.79687483457844621171, 	 42.21656181329486656750, 	 27.43297857199998190936
5.90370000000000061391, 	 51.38338692604224178240, 	 41.98396534053539852493, 	 27.49146630681859804213
5.90480000000000071481, 	 50.96201910830414050224, 	 41.74513931341667216657, 	 27.54805223043955209050
5.90589999999999992752, 	 50.53290187764703489393, 	 41.50025069483474027265, 	 27.60272306493300931152
5.90700000000000002842, 	 50.09616101159659962150, 	 41.24946985970843371661, 	 27.65546723902386716532
5.90810000000000012932, 	 49.65192099654608171022, 	 40.99297013622692986701, 	 27.70627504312644617812
5.90920000000000023022, 	 49.20030841016995992732, 	 40.73092733012189370356, 	 27.75513820516273000294
