x [cm], 	 0.69214285714285717077, 	 48.45000000000000284217, 	 96.20785714285715073402
0.00000000000000000000, 	 0.00000000000000000000, 	 0.00000000000000000000, 	 0.00000000000000000000
5.70020000000000059970, 	 1.27499673332981089402, 	 1.21322828932020199133, 	 1.02096846225543824715
5.70130000000000070060, 	 1.12757904333725522683, 	 1.18643131530097378779, 	 1.02001586816101452726
5.70239999999999991331, 	 0.96909113959706905117, 	 1.15648562429179424527, 	 1.01839057237224128727
5.70350000000000001421, 	 0.80105764279497193581, 	 1.12172857400312109277, 	 1.01632907772420266745
5.70460000000000011511, 	 0.63010149487070599150, 	 1.07993118196716331170, 	 1.01412716720861140196
5.70570000000000021600, 	 0.46288860370899903574, 	 1.03202517482305999863, 	 1.01190208698809591681
5.70680000000000031690, 	 0.30338626307457100539, 	 0.97715993885586105439, 	 1.00979580889421893808
5.70790000000000041780, 	 0.15483943010618289593, 	 0.91548019447659434444, 	 1.00791021548636772209
5.70900000000000051870, 	 0.01973474006095342001, 	 0.84790779590397680199, 	 1.00634042835958914530
5.71010000000000061959, 	 -0.10112217652174958216, 	 0.77498155049888783896, 	 1.00542041182038288660
5.71119999999999983231, 	 -0.20776508075511163076, 	 0.69797983754683445845, 	 1.00542906087482020183
5.71229999999999993321, 	 -0.30130948740637841787, 	 0.61705816262225421376, 	 1.00610408800843798005
5.71340000000000003411, 	 -0.38305937321591365663, 	 0.53145174180802046138, 	 1.00720284040633334399
5.71450000000000013500, 	 -0.45514888078709109243, 	 0.44099326261892107803, 	 1.00775279195478817407
5.71560000000000023590, 	 -0.51988977707065009426, 	 0.34557371484351151469, 	 1.00697345539392690839
5.71670000000000033680, 	 -0.57953683991101012651, 	 0.24466020658370196683, 	 1.00505742355369509511
5.71780000000000043769, 	 -0.63627612469742544921, 	 0.13856027319100946982, 	 1.00111468356990607198
5.71890000000000053859, 	 -0.69185556768592160193, 	 0.03073311398773095893, 	 0.99517678605651249679
5.72000000000000063949, 	 -0.74759249954904904989, 	 -0.07333907594790156637, 	 0.98696596464814145833
5.72109999999999985221, 	 -0.80402639550706100913, 	 -0.17170387327263070265, 	 0.97708465927535514961
5.72219999999999995310, 	 -0.86119978438922439867, 	 -0.26267808647872364913, 	 0.96514874704541742112
5.72330000000000005400, 	 -0.91828952361936255766, 	 -0.34513959375617153658, 	 0.95067023623742552552
5.72440000000000015490, 	 -0.97427891933712140737, 	 -0.41875415014090522359, 	 0.93418499629969331544
5.72550000000000025580, 	 -1.02829473834737572524, 	 -0.48412522197441287819, 	 0.91587477706565623148
5.72660000000000035669, 	 -1.07970317960637451904, 	 -0.54230253210373036143, 	 0.89536648542572672138
5.72770000000000045759, 	 -1.12806044591726517545, 	 -0.59391490922296819033, 	 0.87267653047216753315
5.72880000000000055849, 	 -1.17356972079534105369, 	 -0.63912876769342907846, 	 0.84774203436595674255
5.72990000000000065938, 	 -1.21675412394099002888, 	 -0.67811999357660379673, 	 0.82055912957292653775
5.73099999999999987210, 	 -1.25730952184258826243, 	 -0.71126759900616798316, 	 0.79120614691269275376
5.73209999999999997300, 	 -1.29567929597533004760, 	 -0.73880454205488987895, 	 0.75961844211133877636
5.73320000000000007390, 	 -1.33524605078616409592, 	 -0.76102324182715186396, 	 0.72819732753050336882
5.73430000000000017479, 	 -1.38130823320153206524, 	 -0.77839112582261871243, 	 0.69831972674157105629
5.73540000000000027569, 	 -1.41409155945941211741, 	 -0.79147772051722997677, 	 0.67055239560164847656
5.73650000000000037659, 	 -1.42979049457423812441, 	 -0.80046506158619679105, 	 0.64531576158271319876
5.73760000000000047748, 	 -1.42184681028148984794, 	 -0.80464873210354015409, 	 0.62291680018214246051
5.73870000000000057838, 	 -1.38850500055423031753, 	 -0.80486869014052209170, 	 0.60305410457100283583
5.73980000000000067928, 	 -1.30705670033332066460, 	 -0.80113313963219134894, 	 0.58586360942380910632
5.74089999999999989200, 	 -1.13087275503630446671, 	 -0.79142210921670219648, 	 0.57104687587398605952
5.74199999999999999289, 	 -0.83234407243273400567, 	 -0.77783964237710845335, 	 0.55820374246380677352
5.74310000000000009379, 	 -0.45034166451719020996, 	 -0.75943198852860283043, 	 0.54690185219076881129
5.74420000000000019469, 	 -0.06284636181594528692, 	 -0.73551654741502370261, 	 0.53679699859303353637
5.74530000000000029559, 	 0.32054445223209632188, 	 -0.70623888600585393860, 	 0.52736709181214647124
5.74640000000000039648, 	 0.70185332064545025155, 	 -0.67191427644854206935, 	 0.51827013291439727460
5.74750000000000049738, 	 1.08583130066072808262, 	 -0.63938122899591420811, 	 0.50921266072365778399
5.74860000000000059828, 	 1.47345327453287211483, 	 -0.60994192636936950258, 	 0.49998099009538177206
5.74970000000000069917, 	 1.86302479933755771313, 	 -0.57513761746264124852, 	 0.49046932102656859431
5.75079999999999991189, 	 2.25377250152417607509, 	 -0.52947982560264694740, 	 0.48060860327522447744
5.75190000000000001279, 	 2.64685865848843482340, 	 -0.47164487026377771572, 	 0.47043687449011400981
5.75300000000000011369, 	 3.04341338702368258140, 	 -0.39028184641943269861, 	 0.46003259320099537666
5.75410000000000021458, 	 3.44534932340119448568, 	 -0.27519804270448755545, 	 0.44943700391234020497
5.75520000000000031548, 	 3.85680397928289542264, 	 -0.11706685923921933412, 	 0.43864821253945474044
5.75630000000000041638, 	 4.28266221587708617591, 	 0.13718745280894825700, 	 0.42764224340746598285
5.75740000000000051728, 	 4.72845642487349948624, 	 0.51413464250687757051, 	 0.41639646267042862426
5.75850000000000061817, 	 5.20094001587232135364, 	 0.94536732021254943348, 	 0.40516841312140722264
5.75960000000000071907, 	 5.70475875963310219419, 	 1.35813953945111509647, 	 0.39382475050267173877
5.76069999999999993179, 	 6.24030441248962208789, 	 1.76034525100667083031, 	 0.38180859500714420252
5.76180000000000003268, 	 6.80190187298178816633, 	 2.15813992495100093194, 	 0.36733697477660265385
5.76290000000000013358, 	 7.37855045687073118899, 	 2.55396294488099551145, 	 0.35388034205271062804
5.76400000000000023448, 	 7.95752649434508096959, 	 2.94736458573760007340, 	 0.34326348816620044779
5.76510000000000033538, 	 8.53210126332150764483, 	 3.33785165386328008807, 	 0.33743669926742464460
5.76620000000000043627, 	 9.09916780723031770606, 	 3.72551038862641359373, 	 0.34305237349504302813
5.76730000000000053717, 	 9.65650247733063871181, 	 4.11185110858104518883, 	 0.35475074159477942848
5.76840000000000063807, 	 10.20260530012100375075, 	 4.49872896703756719461, 	 0.37439131170421646733
5.76949999999999985079, 	 10.73720966339893756469, 	 4.88888171557931805467, 	 0.41450390121253349873
5.77059999999999995168, 	 11.26103754379156995924, 	 5.28647376006456326536, 	 0.48492640017384952555
5.77170000000000005258, 	 11.77467968257241892616, 	 5.69607913228822759777, 	 0.58777283059923557396
5.77280000000000015348, 	 12.27943259679042320442, 	 6.12349913091381736763, 	 0.71205223497937020216
5.77390000000000025437, 	 12.77761177755627386432, 	 6.57451533884933603247, 	 0.82008506683449977626
5.77500000000000035527, 	 13.27161974412750211627, 	 7.05296314259121537305, 	 0.92278472822477475290
5.77610000000000045617, 	 13.76468260657785336321, 	 7.55839237339559311124, 	 1.02509128516480862992
5.77720000000000055707, 	 14.25900566014099268841, 	 8.08359679213135429166, 	 1.12682867226886163081
5.77830000000000065796, 	 14.75627755163795029603, 	 8.61455951132475306053, 	 1.22778391754063442853
5.77939999999999987068, 	 15.25751145617784843012, 	 9.13513030394155833847, 	 1.32784306626969206278
5.78049999999999997158, 	 15.76308580399945213912, 	 9.63945617681977040547, 	 1.42730459991306446454
5.78160000000000007248, 	 16.27277188643938643509, 	 10.12447819086361811003, 	 1.52652347049002323764
5.78270000000000017337, 	 16.78594039674008442375, 	 10.58472809841675754683, 	 1.62619340645981624860
5.78380000000000027427, 	 17.30224154127547819826, 	 11.00786055364878635032, 	 1.72707425553603144408
5.78490000000000037517, 	 17.82137101025034198187, 	 11.37364065381728650550, 	 1.83054820081984792601
5.78600000000000047606, 	 18.34243034172405018012, 	 11.66345431037111346484, 	 1.93816476675659044027
5.78710000000000057696, 	 18.86397499150458756390, 	 11.88555370779759989830, 	 2.05149937563564188636
5.78820000000000067786, 	 19.38528993789333298992, 	 12.07830564892863023374, 	 2.17196460762597887140
5.78929999999999989058, 	 19.90850194246960214173, 	 12.26869824167217792876, 	 2.30014628459404057992
5.79039999999999999147, 	 20.43707614891744483998, 	 12.46454740608866273988, 	 2.43505844960713258018
5.79150000000000009237, 	 20.96696786565521719581, 	 12.66530115472700579460, 	 2.57478043465766814890
5.79260000000000019327, 	 21.49283688957869387082, 	 12.87154114064114551752, 	 2.71462472837964252648
5.79370000000000029416, 	 22.01039676036582548591, 	 13.08392803152919725562, 	 2.85321723588955222795
5.79480000000000039506, 	 22.51179602767330933943, 	 13.30240932039510859397, 	 2.99090418259268897572
5.79590000000000049596, 	 22.98393072689068716841, 	 13.52625715261473793305, 	 3.12759016053735816598
5.79700000000000059686, 	 23.41433380132194130852, 	 13.75414407453812337678, 	 3.26309293642256115220
5.79810000000000069775, 	 23.78555099180400844716, 	 13.98368420463080319394, 	 3.39727743629035305872
5.79919999999999991047, 	 24.06698265547486315086, 	 14.21225803594617254078, 	 3.53012309717042249702
5.80030000000000001137, 	 24.23078035995194312591, 	 14.43623500144093085851, 	 3.66182793427003661080
5.80140000000000011227, 	 24.28059930361898466344, 	 14.65041245183768126026, 	 3.79269669759038663415
5.80250000000000021316, 	 24.23853487340549506257, 	 14.85085963205539094645, 	 3.92302765183666535265
5.80360000000000031406, 	 24.15146657132530094714, 	 15.03608148698921098685, 	 4.05325145441234280241
5.80470000000000041496, 	 24.05714813628831549863, 	 15.20532947731078543541, 	 4.18386238829750922719
5.80580000000000051585, 	 23.96599736472185782077, 	 15.35806070478377449717, 	 4.31517959374688864216
5.80690000000000061675, 	 23.87420997130825384147, 	 15.49984640445888040006, 	 4.44754025804157659962
5.80800000000000071765, 	 23.78204185499281564375, 	 15.63730088707110965629, 	 4.58115548084226364978
5.80909999999999993037, 	 23.68962855981361315116, 	 15.76826275057859483297, 	 4.71600952267142403684
5.81020000000000003126, 	 23.59620035588229569612, 	 15.89155081264316926593, 	 4.85195154127632299890
5.81130000000000013216, 	 23.50143358784218605706, 	 15.99750374788844098362, 	 4.98884039611834761985
5.81240000000000023306, 	 23.40467567619287692082, 	 16.06727306364121687920, 	 5.12654312099713571627
5.81350000000000033396, 	 23.30543525852377939600, 	 16.08771638825545835516, 	 5.26503183503831628798
5.81460000000000043485, 	 23.20278728680503377291, 	 16.06766460647661887151, 	 5.40381004017302135622
5.81570000000000053575, 	 23.09631697741487244002, 	 15.99970958773282347920, 	 5.54259570262028500309
5.81680000000000063665, 	 22.98574134405607694021, 	 15.88998406373848659712, 	 5.68179973735884580321
5.81789999999999984936, 	 22.86945935974346610919, 	 15.75316477466955156217, 	 5.82161986918770324451
5.81899999999999995026, 	 22.74374713447419793511, 	 15.60425347542894058961, 	 5.96161845024748782151
5.82010000000000005116, 	 22.60532500682236545231, 	 15.44964765563627295819, 	 6.10180479887098314862
5.82120000000000015206, 	 22.45436264906525281049, 	 15.29031670019892175105, 	 6.24136209205606373729
5.82230000000000025295, 	 22.29021702857748721271, 	 15.12599305053424103562, 	 6.38091057787288118419
5.82340000000000035385, 	 22.11840575557437205134, 	 14.95621888446393299432, 	 6.52018716790583052756
5.82450000000000045475, 	 21.94076351823133919083, 	 14.78082319804924971152, 	 6.65445477253301742593
5.82560000000000055564, 	 21.75583502259453183569, 	 14.60029722383238315331, 	 6.77574972568313427246
5.82670000000000065654, 	 21.56293320299450400057, 	 14.41554582682362806167, 	 6.88253080467944577947
5.82779999999999986926, 	 21.36223944922206285923, 	 14.22771490105346714472, 	 6.97977470602098826191
5.82889999999999997016, 	 21.15373920893719628111, 	 14.03929882007956742029, 	 7.06310392469298253815
5.83000000000000007105, 	 20.93800795284749227676, 	 13.85317603172554967728, 	 7.13155930553791073123
5.83110000000000017195, 	 20.71637445257492871065, 	 13.67272024049554879355, 	 7.19027680312099093385
5.83220000000000027285, 	 20.49037240219310263001, 	 13.49963700809557209936, 	 7.24392061746572490932
5.83330000000000037375, 	 20.26141059144874390086, 	 13.33335334779682845863, 	 7.29558385946692666835
5.83440000000000047464, 	 20.03075080128424900749, 	 13.17275281128818953391, 	 7.34696169116915598352
5.83550000000000057554, 	 19.79942276603305018057, 	 13.01400108022862056600, 	 7.39778623108742117154
5.83660000000000067644, 	 19.56822709887671152273, 	 12.85133443700463118375, 	 7.44796700740102846083
5.83769999999999988916, 	 19.33717866198228207963, 	 12.68162428002063357724, 	 7.49735124525240070881
5.83879999999999999005, 	 19.10520107956839197527, 	 12.51412823592240641801, 	 7.54591337052824417952
5.83990000000000009095, 	 18.87054917687649790992, 	 12.35701562554679178163, 	 7.59376946517368356382
5.84100000000000019185, 	 18.63146767473682530181, 	 12.21378156480976429066, 	 7.64113140739618224018
5.84210000000000029274, 	 18.38663735262156251338, 	 12.09124238827419972608, 	 7.68848562359064313654
5.84320000000000039364, 	 18.13537680552775910314, 	 11.99192731096029440607, 	 7.73639588563500346652
5.84430000000000049454, 	 17.87776674813771649042, 	 11.91177278307063858165, 	 7.78546078085435500071
5.84540000000000059543, 	 17.61378275181373354030, 	 11.85091302027025506050, 	 7.83653179641967145841
5.84650000000000069633, 	 17.34275530469047055249, 	 11.80637384399467570972, 	 7.89010396639968636379
5.84759999999999990905, 	 17.06414891675257905490, 	 11.77190120043973742270, 	 7.94589349845198889000
5.84870000000000000995, 	 16.77925765180150108336, 	 11.74387547457616776114, 	 8.00329832863921275532
5.84980000000000011084, 	 16.48968612670690703226, 	 11.71999528749955743478, 	 8.05996637640577873185
5.85090000000000021174, 	 16.19216799576187071352, 	 11.69982397915912564201, 	 8.11510389951194710534
5.85200000000000031264, 	 15.88303653014794747378, 	 11.68380307489087677197, 	 8.16832883828738331999
5.85310000000000041354, 	 15.57421555282895830885, 	 11.67170439434039153070, 	 8.21916833116758205335
5.85420000000000051443, 	 15.28111168884376880328, 	 11.66203188340213969809, 	 8.26719350713043787948
5.85530000000000061533, 	 15.01817586477136856615, 	 11.65242686513022718486, 	 8.31209331223388403487
5.85640000000000071623, 	 14.79366452354177319251, 	 11.64057246395726252786, 	 8.35374713168435079069
5.85749999999999992895, 	 14.60778879412354314127, 	 11.62438678466050134830, 	 8.39211703445150725145
5.85860000000000002984, 	 14.45617937468718849914, 	 11.60159948943222829598, 	 8.42792103200724618262
5.85970000000000013074, 	 14.33399750161203556331, 	 11.56985020698300914432, 	 8.46155492574069256762
5.86080000000000023164, 	 14.23618417925556300929, 	 11.52778672398516945918, 	 8.49361737335293653928
5.86190000000000033253, 	 14.15657739209077981002, 	 11.47403059626287458173, 	 8.52476194979047363631
5.86300000000000043343, 	 14.09000000541636055118, 	 11.40850873790724051560, 	 8.55557741951163031047
5.86410000000000053433, 	 14.03142800673799683864, 	 11.33508147066045879114, 	 8.58661255773301412830
5.86520000000000063523, 	 13.97566565616457268106, 	 11.25643351040755391068, 	 8.61820482488197114890
5.86629999999999984794, 	 13.91843416245527187414, 	 11.17392055059354838420, 	 8.65047761202271914271
5.86739999999999994884, 	 13.85746851546273461508, 	 11.09121007484498733220, 	 8.68326728933777225450
5.86850000000000004974, 	 13.79158618835491623145, 	 11.01362013062100153604, 	 8.71583621363694049933
5.86960000000000015064, 	 13.71982688954794582514, 	 10.94912583443190712273, 	 8.74751997016920057604
5.87070000000000025153, 	 13.64097100528215200654, 	 10.90186896840229735517, 	 8.77806268179636006721
5.87180000000000035243, 	 13.55357378208916152573, 	 10.87049347515703523470, 	 8.80725154584138358871
5.87290000000000045333, 	 13.45633416680686700317, 	 10.85051806404243635029, 	 8.83482409897335863036
5.87400000000000055422, 	 13.34798920745085482054, 	 10.83701825787652950339, 	 8.86058881877134396632
5.87510000000000065512, 	 13.22712923595632261708, 	 10.82787743404083080634, 	 8.88444172330635950630
5.87619999999999986784, 	 13.09279219838797203579, 	 10.82251948151576215196, 	 8.90664384702799161175
5.87729999999999996874, 	 12.94406442550145008852, 	 10.82043744432778176190, 	 8.92719821259824719561
5.87840000000000006963, 	 12.78237208959480675219, 	 10.82023139945117229388, 	 8.94621555019445402479
5.87950000000000017053, 	 12.61466933304729742815, 	 10.81893017161248238267, 	 8.96322476199598305868
5.88060000000000027143, 	 12.44788019702689929602, 	 10.81284057903164175229, 	 8.97855449991223331097
5.88170000000000037232, 	 12.28551304626298978917, 	 10.79969181885159557055, 	 8.99292761293214404361
5.88280000000000047322, 	 12.12892802148500948078, 	 10.78011294552277554715, 	 9.00817742807338106559
5.88390000000000057412, 	 11.97830450159992388137, 	 10.75313679692782642405, 	 9.02569157646189523803
5.88500000000000067502, 	 11.83439045117608401370, 	 10.71949057657229076312, 	 9.04590865820853196055
5.88609999999999988773, 	 11.69723673416760512112, 	 10.67965018468535376428, 	 9.06831433553338861486
5.88719999999999998863, 	 11.56559803217860959990, 	 10.63412210844096605911, 	 9.09169142014342668290
5.88830000000000008953, 	 11.43859965171162329511, 	 10.58344205765193990487, 	 9.11401823193470406181
5.88940000000000019043, 	 11.31584333315626800243, 	 10.52806353456824339787, 	 9.13588914043858757452
5.89050000000000029132, 	 11.19694675004607908875, 	 10.46800713064902765836, 	 9.15793589074953828799
5.89160000000000039222, 	 11.08139925626902311251, 	 10.40315195467619346914, 	 9.18046173720624025805
5.89270000000000049312, 	 10.96923280370496378566, 	 10.33452357745299821090, 	 9.20323410086607118785
5.89380000000000059401, 	 10.86068696983185333238, 	 10.26515063700991703399, 	 9.22495982484239895882
5.89490000000000069491, 	 10.75647075085239201542, 	 10.19717533234538642262, 	 9.24524582497034508322
5.89599999999999990763, 	 10.65676791014454316553, 	 10.13236560504193128907, 	 9.26381046074050829020
5.89710000000000000853, 	 10.56127014574604849884, 	 10.06996236157479529538, 	 9.28035532909578719796
5.89820000000000010942, 	 10.47010485143389502127, 	 10.00636959007816884082, 	 9.29422887899184324567
5.89930000000000021032, 	 10.38293849483473429984, 	 9.93755398262617006822, 	 9.30582983969632770993
5.90040000000000031122, 	 10.29741950570725350644, 	 9.86192603090997721438, 	 9.31512331525589409864
5.90150000000000041211, 	 10.21068267389160588721, 	 9.77999305114725636656, 	 9.32185991807337366311
5.90260000000000051301, 	 10.12096399588416772986, 	 9.69403899718286510279, 	 9.32597106349931337377
5.90370000000000061391, 	 10.02768697588153834488, 	 9.60667431851184616676, 	 9.32750188416046022155
5.90480000000000071481, 	 9.93025464338508356832, 	 9.51859145368122661068, 	 9.32610359674816358222
5.90589999999999992752, 	 9.82815648378565498433, 	 9.42993464628174038467, 	 9.32293387789862748605
5.90700000000000002842, 	 9.72107461390253213551, 	 9.34144769409157404993, 	 9.31722498091760797934
5.90810000000000012932, 	 9.61260479620680996504, 	 9.25597991908389161608, 	 9.31050203536120868364
5.90920000000000023022, 	 9.50241095569442784097, 	 9.17691877850676007711, 	 9.30357516067595469167
5.91030000000000033111, 	 9.39187862441775322964, 	 9.10647528354594193445, 	 9.29700928572241913628
5.91140000000000043201, 	 9.28413462056139060508, 	 9.04555542603588236261, 	 9.29087169321376649123
