x [cm], 	 0.40000000000000002220, 	 2.00000000000000000000, 	 3.60000000000000008882
0.00000000000000000000, 	 0.00000000000000000000, 	 0.00000000000000000000, 	 0.00000000000000000000
5.70020000000000059970, 	 2.67303193849898024226, 	 3.75708072376187462993, 	 4.86632151973384097232
5.70130000000000070060, 	 3.62596891506431617813, 	 4.24125823872321738861, 	 5.10752349357549206843
5.70239999999999991331, 	 5.82397523827869267876, 	 5.89055371984672415664, 	 6.33218968511406021804
5.70350000000000001421, 	 9.05702510437574481728, 	 8.63790840161285267129, 	 8.63740547108475809068
5.70460000000000011511, 	 13.20937756424860864968, 	 12.34997482560585524425, 	 11.85155960819673559570
5.70570000000000021600, 	 18.06171733149824376596, 	 16.82567119885084849784, 	 15.80616749696764422595
5.70680000000000031690, 	 23.26978232859989503822, 	 21.69882427083549814029, 	 20.21549147411236191374
5.70790000000000041780, 	 28.52795297651221417823, 	 26.71447925165812620207, 	 24.87648932442790083996
5.70900000000000051870, 	 33.69615029766464431304, 	 31.71883434479374486159, 	 29.62083681903629184262
5.71010000000000061959, 	 38.69882080351884212632, 	 36.59650167298538292471, 	 34.30864642533573771743
5.71119999999999983231, 	 43.51091476170238792065, 	 41.30014975976314417494, 	 38.87223609804970436699
5.71229999999999993321, 	 48.13453773775040644978, 	 45.81554120298252996690, 	 43.28432323920898738834
5.71340000000000003411, 	 52.60753087507663394717, 	 50.17983293773438191465, 	 47.56373836814977806853
5.71450000000000013500, 	 56.98386378228901349985, 	 54.44149607605357488183, 	 51.74178226669319968778
5.71560000000000023590, 	 61.31092650961989676262, 	 58.64659160865810605401, 	 55.85713985042761464683
5.71670000000000033680, 	 65.62775024783263688732, 	 62.83678957674780463094, 	 59.95068629655159497815
5.71780000000000043769, 	 69.96367219905265244506, 	 67.04531942502271135709, 	 64.05685698715591058772
5.71890000000000053859, 	 74.33593157138074047907, 	 71.29264624263613825406, 	 68.19744381938043886748
5.72000000000000063949, 	 78.74856911382330793003, 	 75.58451294105307738391, 	 72.37930891651964770972
5.72109999999999985221, 	 83.19396230837342898212, 	 79.91352241266909572914, 	 76.59627898129191692078
5.72219999999999995310, 	 87.65690225628202369990, 	 84.26376194140745212735, 	 80.83400372551395207665
5.72330000000000005400, 	 92.11989638517206913093, 	 88.61674529427624236178, 	 85.07578897817582230800
5.72440000000000015490, 	 96.56801131097810753090, 	 92.95674645120053014580, 	 89.30759965580428172416
5.72550000000000025580, 	 100.99199807664933814522, 	 97.27418114737989185414, 	 93.52110755100534333906
5.72660000000000035669, 	 105.38922621991272876585, 	 101.56658524593532888503, 	 97.71450456234855153070
5.72770000000000045759, 	 109.76271471706147053737, 	 105.83755309102856756454, 	 101.89149538164950570263
5.72880000000000055849, 	 114.11902062995424955716, 	 110.09447904561127984380, 	 106.05926665533181108003
5.72990000000000065938, 	 118.46585664470647714097, 	 114.34601383792632134373, 	 110.22616755553828227221
5.73099999999999987210, 	 122.81002126957062614565, 	 118.59982565250321329131, 	 114.39963980292573353381
5.73209999999999997300, 	 127.15606626587037908394, 	 122.86116955703987230208, 	 118.58490745574292191122
5.73320000000000007390, 	 131.50581166787895881498, 	 127.13233832179702176290, 	 122.78441523131910173561
5.73430000000000017479, 	 135.85853469786150071741, 	 131.41282152760334156483, 	 126.99789899792939706913
5.73540000000000027569, 	 140.21167832816249187999, 	 135.69968435805455442278, 	 131.21894976178762703967
5.73650000000000037659, 	 144.56237587538504385520, 	 139.98866217915119136705, 	 135.44545322550470700662
5.73760000000000047748, 	 148.90698971630379787712, 	 144.27647842811782652461, 	 139.67502976002836589942
5.73870000000000057838, 	 153.24192291082826500315, 	 148.55945462328773487570, 	 143.90422378569562056327
5.73980000000000067928, 	 157.56371588553247420350, 	 152.83385284527287240053, 	 148.12926365079891866117
5.74089999999999989200, 	 161.86933859570262939087, 	 157.09627523276245142370, 	 152.34658369386116305577
5.74199999999999999289, 	 166.15639361466404011480, 	 161.34395311542238005131, 	 156.55318442028712411229
5.74310000000000009379, 	 170.42318090684764797516, 	 165.57486437719313698835, 	 160.74679078115880770383
5.74420000000000019469, 	 174.66862615662989810517, 	 169.78768305951194861336, 	 164.92582596347793355562
5.74530000000000029559, 	 178.89211239048552215536, 	 173.98160956851569380888, 	 169.08925724264807399777
5.74640000000000039648, 	 183.09327288869013727890, 	 178.15614935453879752458, 	 173.23638509149407127552
5.74750000000000049738, 	 187.27180040285210793627, 	 182.31090350364183905185, 	 177.36663971235333292498
5.74860000000000059828, 	 191.42731062756394067037, 	 186.44541527247798740063, 	 181.47942872207761411119
5.74970000000000069917, 	 195.55927346826044299632, 	 190.55908847049002474705, 	 185.57405122808438591164
5.75079999999999991189, 	 199.66700484979506313721, 	 194.65117164652551196014, 	 189.64967466264349127414
5.75190000000000001279, 	 203.74970033092742482950, 	 198.72078877231177784779, 	 193.70535692218612666693
5.75300000000000011369, 	 207.80648795558633423752, 	 202.76699245257844950174, 	 197.74009169521968942718
5.75410000000000021458, 	 211.83648075760294204883, 	 206.78881848309424640320, 	 201.75285708358092051640
5.75520000000000031548, 	 215.83881637445813339582, 	 210.78532807893992639947, 	 205.74265467692734432603
5.75630000000000041638, 	 219.81267860276068404346, 	 214.75563113664256320590, 	 209.70853076756074528930
5.75740000000000051728, 	 223.75729990009429570819, 	 218.69888863983936744262, 	 213.64957760873406300561
5.75850000000000061817, 	 227.67194974414221064762, 	 222.61430021895040454183, 	 217.56492201697849964148
5.75960000000000071907, 	 231.55591747938595403866, 	 226.50108595610689121713, 	 221.45370893735076833764
5.76069999999999993179, 	 235.40849645664903277975, 	 230.35846948273885459457, 	 225.31508609297799239357
5.76180000000000003268, 	 239.22897317509753634113, 	 234.18566606403149421567, 	 229.14819244437387624203
5.76290000000000013358, 	 243.01662150531350903293, 	 237.98187557148727933054, 	 232.95215024675243853380
5.76400000000000023448, 	 246.77070050803325784727, 	 241.74627915885361062465, 	 236.72606054737454428505
5.76510000000000033538, 	 250.49045477084587218997, 	 245.47803880533419373933, 	 240.46900166207518623196
5.76620000000000043627, 	 254.17511626502266608441, 	 249.17629878510203411679, 	 244.18003004861392923885
5.76730000000000053717, 	 257.82390739236547005930, 	 252.84018895654276093410, 	 247.85818382223231992612
5.76840000000000063807, 	 261.43604532646230609316, 	 256.46882991981470922838, 	 251.50248860728066802039
5.76949999999999985079, 	 265.01074718748378700184, 	 260.06133931524146873926, 	 255.11196472263395662594
5.77059999999999995168, 	 268.54723539397082276992, 	 263.61683845048628427321, 	 258.68563472209899600784
5.77170000000000005258, 	 272.04474237282971671448, 	 267.13445818908837736672, 	 262.22253004756981908940
5.77280000000000015348, 	 275.50251391737373296564, 	 270.61334325286276225597, 	 265.72169593472108317656
5.77390000000000025437, 	 278.91981086686956814447, 	 274.05265456022641501477, 	 269.18219423769784270917
5.77500000000000035527, 	 282.29590923631440091413, 	 277.45156975097989970891, 	 272.60310436977653125723
5.77610000000000045617, 	 285.63009927148726774249, 	 280.80928243776196495674, 	 275.98352291844764749840
5.77720000000000055707, 	 288.92168387613708091521, 	 284.12500054153838391358, 	 279.32256199375370897542
5.77830000000000065796, 	 292.16997739825706048578, 	 287.39794562165661773179, 	 282.61935008425882642769
5.77939999999999987068, 	 295.37430567399673009277, 	 290.62735256956113971682, 	 285.87303035458836575344
5.78049999999999997158, 	 298.53400487330770829431, 	 293.81246836329199823012, 	 289.08276007845449839806
5.78160000000000007248, 	 301.64842162997877039743, 	 296.95255249433267863424, 	 292.24771145572407249347
5.78270000000000017337, 	 304.71691397154893365951, 	 300.04687809060180825327, 	 295.36707284094512715455
5.78380000000000027427, 	 307.73885252570983084297, 	 303.09473334877765182682, 	 298.44005029845868648408
5.78490000000000037517, 	 310.71362175695043106316, 	 306.09542302491303189527, 	 301.46586925021745173581
5.78600000000000047606, 	 313.64062107621583663786, 	 309.04826981110710448775, 	 304.44377604955360538952
5.78710000000000057696, 	 316.51926575521622453380, 	 311.95261551496327001587, 	 307.37303938371513822858
5.78820000000000067786, 	 319.34898763394471643551, 	 314.80782201629642713669, 	 310.25295146145441549379
5.78929999999999989058, 	 322.12923564446168711584, 	 317.61327201564921551835, 	 313.08282898587287945702
5.79039999999999999147, 	 324.85947619217648707490, 	 320.36836961285149527612, 	 315.86201394147917653754
5.79150000000000009237, 	 327.53919344077627329170, 	 323.07254076254884012087, 	 318.58987423691417006921
5.79260000000000019327, 	 330.16788954125235022730, 	 325.72523364974603055089, 	 321.26580424375066513676
5.79370000000000029416, 	 332.74508483347148057874, 	 328.32591901683537116696, 	 323.88922526235103305225
5.79480000000000039506, 	 335.27031803490189076911, 	 330.87409045918803940367, 	 326.45958593259797453356
5.79590000000000049596, 	 337.74314641859558605574, 	 333.36926469271833184393, 	 328.97636259392817237313
5.79700000000000059686, 	 340.16314597309741429854, 	 335.81098178606970350302, 	 331.43905958805157752067
5.79810000000000069775, 	 342.52991153141221047917, 	 338.19880534345026035226, 	 333.84720949070998585739
5.79919999999999991047, 	 344.84305685466955537777, 	 340.53232262209849068313, 	 336.20037325654493542970
5.80030000000000001137, 	 347.10221465821678066277, 	 342.81114457052325406039, 	 338.49814026333382344092
5.80140000000000011227, 	 349.30703657256520955343, 	 345.03490577892716828501, 	 340.74012824732699300512
5.80250000000000021316, 	 351.45719303750178141854, 	 347.20326433998707216233, 	 342.92598312846541830368
5.80360000000000031406, 	 353.55237313332486337458, 	 349.31590162472929250725, 	 345.05537873109665270022
5.80470000000000041496, 	 355.59228435740550366972, 	 351.37252198325734298123, 	 347.12801641105284033983
5.80580000000000051585, 	 357.57665235649437818211, 	 353.37285238282606769644, 	 349.14362460287514977608
5.80690000000000061675, 	 359.50522062537595502363, 	 355.31664199616011501348, 	 351.10195830151940299402
5.80800000000000071765, 	 361.37775018105099888999, 	 357.20366175147427156844, 	 353.00279849153849909271
5.80909999999999993037, 	 363.19401921931961396695, 	 359.03370385313360202417, 	 354.84595153427449076844
5.81020000000000003126, 	 364.95382275813403794018, 	 360.80658127909345012085, 	 356.63124852078146886925
5.81130000000000013216, 	 366.65697226995786195403, 	 362.52212725880065136153, 	 358.35854459566758123401
5.81240000000000023306, 	 368.30329530389332148843, 	 364.18019473347425218890, 	 360.02771825514992087847
5.81350000000000033396, 	 369.89263509760024817297, 	 365.78065579971507759183, 	 361.63867062147841124897
5.81460000000000043485, 	 371.42485017889981691042, 	 367.32340113710404239100, 	 363.19132469542603303125
5.81570000000000053575, 	 372.89981395723543755594, 	 368.80833942063748054352, 	 364.68562458857178398830
5.81680000000000063665, 	 374.31741430563653239005, 	 370.23539671927466088164, 	 366.12153473740636400180
5.81789999999999984936, 	 375.67755313430473051994, 	 371.60451588234002429090, 	 367.49903910167171261492
5.81899999999999995026, 	 376.98014595731405051993, 	 372.91565591589306905007, 	 368.81814034966026838447
5.82010000000000005116, 	 378.22512145411582196175, 	 374.16879135138486844880, 	 370.07885903337273703073
5.82120000000000015206, 	 379.41242102757678367198, 	 375.36391160894748963983, 	 371.28123275644782097515
5.82230000000000025295, 	 380.54199836019438407675, 	 376.50102035757646490310, 	 372.42531533770733176425
5.82340000000000035385, 	 381.61381897005492191965, 	 377.58013487443071198868, 	 373.51117597327527164452
5.82450000000000045475, 	 382.62785976848010704998, 	 378.60128540622048376463, 	 374.53889840161809843266
5.82560000000000055564, 	 383.58410862173758459903, 	 379.56451453539102658397, 	 375.50858007331453336519
5.82670000000000065654, 	 384.48256391671213805239, 	 380.46987655124195271128, 	 376.42033132711441112406
5.82779999999999986926, 	 385.32323413249469012953, 	 381.31743682939094242101, 	 377.27427457694682289002
5.82889999999999997016, 	 386.10613741375578911175, 	 382.10727120461876893387, 	 378.07054345825866903397
5.83000000000000007105, 	 386.83130102565428387607, 	 382.83946513679370582395, 	 378.80928162570620543192
5.83110000000000017195, 	 387.49876060343683548126, 	 383.51411270406703124536, 	 379.49064159318521660680
5.83220000000000027285, 	 388.10855958780410901454, 	 384.13131571967585387029, 	 380.11478269671800944707
5.83330000000000037375, 	 388.66074252998981819474, 	 384.69117098520575837028, 	 380.68184786759758253538
5.83440000000000047464, 	 389.15534393358035458732, 	 385.19376459922574440498, 	 381.19197990248017049453
5.83550000000000057554, 	 389.59241322836498966353, 	 385.63920608627500996590, 	 381.64535692864120619561
5.83660000000000067644, 	 389.97203017480217113189, 	 386.02763784566570848256, 	 382.04218615202915998452
5.83769999999999988916, 	 390.29429709759284605752, 	 386.35922405326334683195, 	 382.38269100071863704216
5.83879999999999999005, 	 390.55932553619936697942, 	 386.63413609493596823086, 	 382.66709844589831845951
5.83990000000000009095, 	 390.76722588418914483555, 	 386.85254176093252453938, 	 382.89563010882608296015
5.84100000000000019185, 	 390.91810282567575995927, 	 387.01460075001773475378, 	 383.06849901859413876082
5.84210000000000029274, 	 391.01205615095159373595, 	 387.12046576560339872231, 	 383.18591095218494047003
5.84320000000000039364, 	 391.04918461108849214725, 	 387.17028671873703160600, 	 383.24806838174032463940
5.84430000000000049454, 	 391.02959054281490125504, 	 387.16421567811778459145, 	 383.25517488763341589220
5.84540000000000059543, 	 390.95338327382546594890, 	 387.10241029772680576571, 	 383.20743774681903914825
5.84650000000000069633, 	 390.82068004540684569292, 	 386.98503443068074147959, 	 383.10506778527297910841
5.84759999999999990905, 	 390.63160464659142689925, 	 386.81225638377549103097, 	 382.94827739705044677976
5.84870000000000000995, 	 390.38628512549240667795, 	 386.58424639712745829456, 	 382.73727826522218720129
5.84980000000000011084, 	 390.08485195609881657219, 	 386.30117477712826712377, 	 382.47227994423104746602
5.85090000000000021174, 	 389.72743746835067213397, 	 385.96321151682087702284, 	 382.15349000449356253739
5.85200000000000031264, 	 389.31417674197444966921, 	 385.57052757292643718756, 	 381.78111577920225272464
5.85310000000000041354, 	 388.84520955267936415112, 	 385.12329725356329390706, 	 381.35536700126226605789
5.85420000000000051443, 	 388.32068248404254973138, 	 384.62170064261670177075, 	 380.87645814672197275286
5.85530000000000061533, 	 387.74075020265382818252, 	 384.06592490734823286402, 	 380.34460934682124388928
5.85640000000000071623, 	 387.10557520588952229446, 	 383.45616374593879527310, 	 379.76004524737089695918
5.85749999999999992895, 	 386.41532593143460871943, 	 382.79261491648009041455, 	 379.12299191547072041431
5.85860000000000002984, 	 385.67017372314006706802, 	 382.07547649144879642336, 	 378.43367260584369660137
5.85970000000000013074, 	 384.87028955194085710900, 	 381.30494289896529380712, 	 377.69230349131800039686
5.86080000000000023164, 	 384.01584136702649630024, 	 380.48120174065860510382, 	 376.89909031867381372649
5.86190000000000033253, 	 383.10699265491012965867, 	 379.60443204023982843864, 	 376.05422661896585623253
5.86300000000000043343, 	 382.14390240059697134711, 	 378.67480414510998798505, 	 375.15789367225642081394
5.86410000000000053433, 	 381.12672629686971959018, 	 377.69248111299947368025, 	 374.21026204740383036551
5.86520000000000063523, 	 380.05561880742294533775, 	 376.65762112903854585966, 	 373.21149422332001677205
5.86629999999999984794, 	 378.93073555239578809051, 	 375.57038033229969187232, 	 372.16174763439164507872
5.86739999999999994884, 	 377.75223548967073838867, 	 374.43091542700159379820, 	 371.06117746026353643174
5.86850000000000004974, 	 376.52028243879902902336, 	 373.23938553188861533272, 	 369.90993860211966648421
5.86960000000000015064, 	 375.23504582336630619466, 	 371.99595321928973135073, 	 368.70818703776404845485
5.87070000000000025153, 	 373.89670108183685215408, 	 370.70078532343927690818, 	 367.45608120403159091438
5.87180000000000035243, 	 372.50543026791291367772, 	 369.35405400666121522590, 	 366.15378363852630627662
5.87290000000000045333, 	 371.06142286308607936007, 	 367.95593795022267613604, 	 364.80146246521212560765
5.87400000000000055422, 	 369.56487632214378891149, 	 366.50662303515758821959, 	 363.39929198059377313257
5.87510000000000065512, 	 368.01599577145231023678, 	 365.00630187738642007389, 	 361.94745181939327949294
5.87619999999999986784, 	 366.41499264885413822412, 	 363.45517208190562996606, 	 360.44612478700025803846
5.87729999999999996874, 	 364.76208257033960080662, 	 361.85343359969363064010, 	 358.89549382051797010718
5.87840000000000006963, 	 363.05748298659085548934, 	 360.20128592896378449950, 	 357.29573907621022499370
5.87950000000000017053, 	 361.30141157084506176034, 	 358.49892631831573908130, 	 355.64703632363961105511
5.88060000000000027143, 	 359.49408589083873266645, 	 356.74654944851977234066, 	 353.94955679081806465547
5.88170000000000037232, 	 357.63572417925371382807, 	 354.94434832874537733005, 	 352.20346814270993718310
5.88280000000000047322, 	 355.72654673345567744036, 	 353.09251590850243474051, 	 350.40893616671553445485
5.88390000000000057412, 	 353.76677750525345800270, 	 351.19124694473669023864, 	 348.56612676520467175578
5.88500000000000067502, 	 351.75664558739805443111, 	 349.24073981137036071232, 	 346.67520797101229845794
5.88609999999999988773, 	 349.69638645715480151921, 	 347.24119807669438841913, 	 344.73635174968620731306
5.88719999999999998863, 	 347.58624278139467378423, 	 345.19283153325085322649, 	 342.74973515398238532725
5.88830000000000008953, 	 345.42646458891965721705, 	 343.09585633478667432428, 	 340.71554001001914002700
5.88940000000000019043, 	 343.21730813807118920522, 	 340.95049383885088900570, 	 338.63395273290404929867
5.89050000000000029132, 	 340.95903803086309835635, 	 338.75697521773986409244, 	 336.50517335059640799955
5.89160000000000039222, 	 338.65428303197285231363, 	 336.51551804779700205472, 	 334.32954334367468618439
5.89270000000000049312, 	 336.30692054993630790705, 	 334.22757758272604178273, 	 332.10642528834921449743
5.89380000000000059401, 	 333.91308958774436632666, 	 331.89244766233036898484, 	 329.83572459409521115958
5.89490000000000069491, 	 331.47094231366577332665, 	 329.50898282594255306321, 	 327.51698154432386900226
5.89599999999999990763, 	 328.97978326598433795880, 	 327.07674020110363244385, 	 325.15000312661709358508
5.89710000000000000853, 	 326.43982563212267677955, 	 324.59595467164797355508, 	 322.73501367990996868684
5.89820000000000010942, 	 323.85166347867181002584, 	 322.06730220784254470345, 	 320.27268206285384621879
5.89930000000000021032, 	 321.21605328378910826359, 	 319.49159551507938203940, 	 317.76377519213571076762
5.90040000000000031122, 	 318.53374576949101992795, 	 316.86965239926229287448, 	 315.20911807353871836312
5.90150000000000041211, 	 315.80544671696100067493, 	 314.20224111347732787181, 	 312.60949239079178596512
5.90260000000000051301, 	 313.03175434852482794668, 	 311.48998793509838378668, 	 309.96551560953048465308
