x [cm], 	 0.69214285714285717077, 	 48.45000000000000284217, 	 96.20785714285715073402
0.00000000000000000000, 	 0.00000000000000000000, 	 0.00000000000000000000, 	 0.00000000000000000000
5.70020000000000059970, 	 0.61875508629763908974, 	 0.90456405335802259060, 	 0.92625735885877547027
5.70130000000000070060, 	 0.57322769108422000350, 	 0.87114537099645694695, 	 0.92381739790157713088
5.70239999999999991331, 	 0.52625871019903391890, 	 0.83647888079768895064, 	 0.92099882703240942838
5.70350000000000001421, 	 0.47801792538483689476, 	 0.80070291625089451415, 	 0.91739509626502080408
5.70460000000000011511, 	 0.42867666932938619517, 	 0.76395686705539322947, 	 0.91325312726250440498
5.70570000000000021600, 	 0.37840620813429914904, 	 0.72638072158515887278, 	 0.90863284873263305830
5.70680000000000031690, 	 0.32737684024849977860, 	 0.68811474347877543689, 	 0.90358727623501633452
5.70790000000000041780, 	 0.27575720907432155204, 	 0.64929861441605540850, 	 0.89806900789941535024
5.70900000000000051870, 	 0.22371370751434446755, 	 0.61007026344373693760, 	 0.89207040007639537560
5.71010000000000061959, 	 0.17140996971652699976, 	 0.57056505666622325812, 	 0.88560226071491332522
5.71119999999999983231, 	 0.11900703242986089558, 	 0.53091548324473369913, 	 0.87868141001643396137
5.71229999999999993321, 	 0.06666099791946912545, 	 0.49125098774143721725, 	 0.87132613964738125922
5.71340000000000003411, 	 0.01452317714461115981, 	 0.45169763199648360619, 	 0.86355521659354927966
5.71450000000000013500, 	 -0.03725854721156753036, 	 0.41237594974443708695, 	 0.85538791147421944228
5.71560000000000023590, 	 -0.08854058858972622958, 	 0.37340403019867812739, 	 0.84684393556599824038
5.71670000000000033680, 	 -0.13918407703241103546, 	 0.33489542522110571365, 	 0.83794402146199742365
5.71780000000000043769, 	 -0.18904904637734482042, 	 0.29695747730976695955, 	 0.82870946777583964771
5.71890000000000053859, 	 -0.23798407105178345788, 	 0.25969188674336635136, 	 0.81916177751628704851
5.72000000000000063949, 	 -0.28580672745372709409, 	 0.22319443967702845555, 	 0.80932802377172641251
5.72109999999999985221, 	 -0.33227126831731168544, 	 0.18755474720365203356, 	 0.79923241879652362485
5.72219999999999995310, 	 -0.37702358739337649141, 	 0.15285603895314986422, 	 0.78889325966165335657
5.72330000000000005400, 	 -0.41954611768553257134, 	 0.11917513899871769179, 	 0.77833119286933416525
5.72440000000000015490, 	 -0.45909886969275176538, 	 0.08658283254232601589, 	 0.76756878665953232055
5.72550000000000025580, 	 -0.49466897641617368908, 	 0.05514494136588091178, 	 0.75662921478327971325
5.72660000000000035669, 	 -0.52493525463260415354, 	 0.02492458172755810872, 	 0.74553541888714980335
5.72770000000000045759, 	 -0.54826503342557375564, 	 -0.00401372587150351529, 	 0.73430985786806501903
5.72880000000000055849, 	 -0.56277288212542075918, 	 -0.03159728795742770824, 	 0.72297454263615079650
5.72990000000000065938, 	 -0.56496793136075929009, 	 -0.05773506867502939399, 	 0.71155107759604163675
5.73099999999999987210, 	 -0.55525611199176116983, 	 -0.08230361325346080559, 	 0.70006069001849358102
5.73209999999999997300, 	 -0.53180315604186567668, 	 -0.10512903543877290258, 	 0.68852420108273393318
5.73320000000000007390, 	 -0.49083276036895728822, 	 -0.12596576449689877997, 	 0.67696235697902651385
5.73430000000000017479, 	 -0.43058410172116773351, 	 -0.14447282686208143265, 	 0.66539658312143346031
5.73540000000000027569, 	 -0.34936716909331155811, 	 -0.16018761515524373995, 	 0.65384942287182212795
5.73650000000000037659, 	 -0.24598133272123101634, 	 -0.17249607837811781197, 	 0.64234564012219586004
5.73760000000000047748, 	 -0.11958353839832187859, 	 -0.18063588437939079312, 	 0.63091427352910056658
5.73870000000000057838, 	 0.03025085445890700331, 	 -0.18368047086674588186, 	 0.61959136156800553863
5.73980000000000067928, 	 0.20357451206151469525, 	 -0.18052811132938378913, 	 0.60842340736797584366
5.74089999999999989200, 	 0.40012646862002942960, 	 -0.17003976951797705741, 	 0.59747142068852854280
5.74199999999999999289, 	 0.61933752040021372576, 	 -0.15094037843361504669, 	 0.58681548067286914971
5.74310000000000009379, 	 0.86044625358723714204, 	 -0.12180175553520522502, 	 0.57656054837159109727
5.74420000000000019469, 	 1.12245132121377810819, 	 -0.08118737553966089149, 	 0.56684384817290911496
5.74530000000000029559, 	 1.40422862881096710552, 	 -0.02775214525333892165, 	 0.55783970931479875954
5.74640000000000039648, 	 1.70459907339188942998, 	 0.03946568178093706747, 	 0.54976171045346211574
5.74750000000000049738, 	 2.02237457871465142745, 	 0.12195270818008144276, 	 0.54286894174414712655
5.74860000000000059828, 	 2.35639656106549510994, 	 0.22100712402035185833, 	 0.53745626640723398459
5.74970000000000069917, 	 2.70556416481818695630, 	 0.33758369845216729122, 	 0.53385527646026320614
5.75079999999999991189, 	 3.06883564369213202028, 	 0.47241575154259579650, 	 0.53237582749450140795
5.75190000000000001279, 	 3.44525861053086623897, 	 0.62601685290016739760, 	 0.53341547287459534221
5.75300000000000011369, 	 3.83395807474081840027, 	 0.79867103727546506775, 	 0.53741049254758677112
5.75410000000000021458, 	 4.23410375603360922270, 	 0.99043408109895492153, 	 0.54478752567291299780
5.75520000000000031548, 	 4.64491948023979439597, 	 1.20114245254945894992, 	 0.55601400353806484933
5.75630000000000041638, 	 5.06567502178192530238, 	 1.43042837615859985689, 	 0.56930351049943517250
5.75740000000000051728, 	 5.49567705303343068124, 	 1.67773917957091089903, 	 0.58816577586534890543
5.75850000000000061817, 	 5.93426066541994678971, 	 1.94235907782123939924, 	 0.61222517607230897418
5.75960000000000071907, 	 6.38078171943815242173, 	 2.22343125788977813428, 	 0.64149930942607558126
5.76069999999999993179, 	 6.83461079608213584180, 	 2.51997742452571049654, 	 0.67607597034800903657
5.76180000000000003268, 	 7.29512895950308504212, 	 2.83091642495183304362, 	 0.71588723692642475260
5.76290000000000013358, 	 7.76172479493643585613, 	 3.15508513140869295555, 	 0.76072913725695556764
5.76400000000000023448, 	 8.23379206296076837646, 	 3.49125858615957396225, 	 0.81093712201619816415
5.76510000000000033538, 	 8.71072727158629689370, 	 3.83816618270731479967, 	 0.86658690029749652073
5.76620000000000043627, 	 9.19192599183972625099, 	 4.19450330727317588497, 	 0.92760316571080947412
5.76730000000000053717, 	 9.67677594638797522464, 	 4.55893975893796898902, 	 0.99384137976264941283
5.76840000000000063807, 	 10.16465362705951847033, 	 4.93012749866835608969, 	 1.06512109794026188503
5.76949999999999985079, 	 10.65492494671502221593, 	 5.30670966368166219240, 	 1.14123782460201450561
5.77059999999999995168, 	 11.14692771793755809995, 	 5.68733106880972538733, 	 1.22196877379314883250
5.77170000000000005258, 	 11.63996422084210458081, 	 6.07064945491734686556, 	 1.30707791346489599071
5.77280000000000015348, 	 12.13329483036467415502, 	 6.45534674791153584295, 	 1.39632151921108560444
5.77390000000000025437, 	 12.62612853410482749439, 	 6.84013995076314262889, 	 1.48945780314725162441
5.77500000000000035527, 	 13.11762456985914049312, 	 7.22379148314264618591, 	 1.58623535900572787405
5.77610000000000045617, 	 13.60688093494874451039, 	 7.60511679119224215384, 	 1.68640996946557275571
5.77720000000000055707, 	 14.09292758228750663818, 	 7.98300116354617994574, 	 1.78975125301238024988
5.77830000000000065796, 	 14.57473299577194936205, 	 8.35639841324756460494, 	 1.89603759360594814609
5.77939999999999987068, 	 15.05121153135200096074, 	 8.72433757948177301955, 	 2.00505937564352665348
5.78049999999999997158, 	 15.52122462671368552378, 	 9.08592656899609885102, 	 2.11661516803024918332
5.78160000000000007248, 	 15.98358587849987877405, 	 9.44035345104414247430, 	 2.23050958161041634753
5.78270000000000017337, 	 16.43707022954206209420, 	 9.78688575954195982831, 	 2.34655493440438123187
5.78380000000000027427, 	 16.88042658823754749164, 	 10.12486781167750216071, 	 2.46456585174557529783
5.78490000000000037517, 	 17.31239283185666266718, 	 10.45371627749898735260, 	 2.58430661109755055449
5.78600000000000047606, 	 17.73171233742060692862, 	 10.77291430678696215750, 	 2.70564562278804165985
5.78710000000000057696, 	 18.13715139041035939726, 	 11.08200451111849815788, 	 2.82847279801715245640
5.78820000000000067786, 	 18.52751690781556703769, 	 11.38058117906679100884, 	 2.95265710219844113027
5.78929999999999989058, 	 18.90167438618662387739, 	 11.66828219748726347404, 	 3.07805402348454082428
5.79039999999999999147, 	 19.25855635610708915806, 	 11.94478124803289986744, 	 3.20451660745323474444
5.79150000000000009237, 	 19.59716706822346310446, 	 12.20978077913575532421, 	 3.33189987711953916616
5.79260000000000019327, 	 19.91662784262574703575, 	 12.46300605362908342499, 	 3.46006035808753775740
5.79370000000000029416, 	 20.21619496452451869573, 	 12.70420043009590926886, 	 3.58885452378746228064
5.79480000000000039506, 	 20.49525511579678749285, 	 12.93312192527014481414, 	 3.71813736846984754791
5.79590000000000049596, 	 20.75332319772914502209, 	 13.14954103815274599754, 	 3.84776132669507120454
5.79700000000000059686, 	 20.99004550952056646906, 	 13.35323985971504434644, 	 3.97757549045711833458
5.79810000000000069775, 	 21.20519987847990961427, 	 13.54401257462652274910, 	 4.10742505984852623868
5.79919999999999991047, 	 21.39869381819639571063, 	 13.72166742074018408459, 	 4.23715100262200827785
5.80030000000000001137, 	 21.57056328220288676789, 	 13.88603000449795032978, 	 4.36658992864190231842
5.80140000000000011227, 	 21.72096765245972704861, 	 14.03694769950995890895, 	 4.49557419708626593291
5.80250000000000021316, 	 21.85018227076213648274, 	 14.17429476317121128659, 	 4.62393227327774880564
5.80360000000000031406, 	 21.95859144817724484255, 	 14.29797779570289861795, 	 4.75148936817167211188
5.80470000000000041496, 	 22.04665945064306598056, 	 14.40794140034425296903, 	 4.87806885141088830693
5.80580000000000051585, 	 22.11492633990712519676, 	 14.50417167659104222821, 	 5.00349236184593770815
5.80690000000000061675, 	 22.16401616432926502398, 	 14.58670300797415642080, 	 5.12758137727025342656
5.80800000000000071765, 	 22.19462997985569785442, 	 14.65562263751443339288, 	 5.25016197888396618509
5.80909999999999993037, 	 22.20752016501705483620, 	 14.71107344029330477042, 	 5.37106369846779063693
5.81020000000000003126, 	 22.20346999704740298398, 	 14.75325636423856678903, 	 5.49011594487593690417
5.81130000000000013216, 	 22.18327953561066223642, 	 14.78243180634321163325, 	 5.60715566009746879672
5.81240000000000023306, 	 22.14775273829587476371, 	 14.79892016481750260937, 	 5.72202985629495053388
5.81350000000000033396, 	 22.09769754380163675478, 	 14.80310166610777322660, 	 5.83459733738774932732
5.81460000000000043485, 	 22.03383266148791364003, 	 14.79541537326667643981, 	 5.94473013418943363462
5.81570000000000053575, 	 21.95679581468384355958, 	 14.77635129475604536253, 	 6.05231476865111250873
5.81680000000000063665, 	 21.86752579999318868431, 	 14.74640562222540296489, 	 6.15725336106743359466
5.81789999999999984936, 	 21.76718183331975708938, 	 14.70635279276642393143, 	 6.25946453648549017146
5.81899999999999995026, 	 21.65656475307452666357, 	 14.65674353125043261059, 	 6.35888407434298130738
5.82010000000000005116, 	 21.53631071408395669664, 	 14.59822208692028588928, 	 6.45546517246650441990
5.82120000000000015206, 	 21.40704315619148800920, 	 14.53150250300078560883, 	 6.54917798782249960254
5.82230000000000025295, 	 21.26939413479818696828, 	 14.45732388633752663054, 	 6.64000860506528223226
5.82340000000000035385, 	 21.12409031374487966559, 	 14.37644471011426539064, 	 6.72795884068830662983
5.82450000000000045475, 	 20.97193396226996853215, 	 14.28963708673157206874, 	 6.81304759738087906129
5.82560000000000055564, 	 20.81341442984561851404, 	 14.19768004803687055926, 	 6.89531212259021497601
5.82670000000000065654, 	 20.64903285773865349029, 	 14.10135200442560510226, 	 6.97480711916089557434
5.82779999999999986926, 	 20.47932278353212964817, 	 14.00142294317003610615, 	 7.05160156344231303649
5.82889999999999997016, 	 20.30482727700433542850, 	 13.89864696573771496446, 	 7.12577466574194762217
5.83000000000000007105, 	 20.12608010485179121929, 	 13.79375543048223740072, 	 7.19741261104989504815
5.83110000000000017195, 	 19.94361060082419712103, 	 13.68745058313587392718, 	 7.26660660706458205738
5.83220000000000027285, 	 19.75793971010288174739, 	 13.58039967335319353481, 	 7.33345207156164224926
5.83330000000000037375, 	 19.56957131024861240576, 	 13.47322980498137745542, 	 7.39804776456407964247
5.83440000000000047464, 	 19.37899522852989164790, 	 13.36652363803959708832, 	 7.46049574735436049622
5.83550000000000057554, 	 19.18668866990227073188, 	 13.26081510706094412910, 	 7.52090050317409897218
5.83660000000000067644, 	 18.99311654808256832894, 	 13.15659009084498087816, 	 7.57936789062062121758
5.83769999999999988916, 	 18.79872999052157922506, 	 13.05428128210229132833, 	 7.63600395811929821832
5.83879999999999999005, 	 18.60396336594783761598, 	 12.95426925971235654345, 	 7.69091353995470505822
5.83990000000000009095, 	 18.40923234430067267908, 	 12.85688233149899595276, 	 7.74419899453792393018
5.84100000000000019185, 	 18.21494216632654428167, 	 12.76239734827091076852, 	 7.79595714714962806369
5.84210000000000029274, 	 18.02148526131913897075, 	 12.67104108523386862828, 	 7.84627942840321335183
5.84320000000000039364, 	 17.82923398820611993187, 	 12.58299200860187916362, 	 7.89525158702180629433
5.84430000000000049454, 	 17.63853785366604043361, 	 12.49838242723353687325, 	 7.94295355657602719646
5.84540000000000059543, 	 17.44972178108055516077, 	 12.41730090885702431081, 	 7.98945966558753184472
5.84650000000000069633, 	 17.26308461219064582792, 	 12.33979501353999630453, 	 8.03483807715999276411
5.84759999999999990905, 	 17.07889745661860203541, 	 12.26587409654849913920, 	 8.07915140875719473001
5.84870000000000000995, 	 16.89740204944728674263, 	 12.19551242295711723784, 	 8.12245626440672197077
5.84980000000000011084, 	 16.71880962662898184590, 	 12.12865235986551226688, 	 8.16480346496057229899
5.85090000000000021174, 	 16.54329993132985876514, 	 12.06520761292587984315, 	 8.20623829680888583482
5.85200000000000031264, 	 16.37102041011413433580, 	 12.00506646699274604373, 	 8.24680079205932159425
5.85310000000000041354, 	 16.20208541397136414730, 	 11.94809503642737524842, 	 8.28652621413595724675
5.85420000000000051443, 	 16.03657656424537947260, 	 11.89414037193736284337, 	 8.32544542840198076306
5.85530000000000061533, 	 15.87454470042831999876, 	 11.84303353234606959177, 	 8.36358527361371351105
5.85640000000000071623, 	 15.71600739767655952051, 	 11.79459250436076267476, 	 8.40096892776361592325
5.85749999999999992895, 	 15.56095060187340806124, 	 11.74862492618873233141, 	 8.43761620795149269725
5.85860000000000002984, 	 15.40933140681732815835, 	 11.70493072383263744030, 	 8.47354387926647056872
5.85970000000000013074, 	 15.26108020916218066532, 	 11.66330451944492274663, 	 8.50876590669862942207
5.86080000000000023164, 	 15.11610284482667765360, 	 11.62353762359189879305, 	 8.54329379357599805189
5.86190000000000033253, 	 14.97428297121382101409, 	 11.58542001497904472274, 	 8.57713651710431435049
5.86300000000000043343, 	 14.83548474177404763452, 	 11.54874176186701539848, 	 8.61030080492347948962
5.86410000000000053433, 	 14.69955440071626284748, 	 11.51329463178087486597, 	 8.64279155290674694356
5.86520000000000063523, 	 14.56632674664953164267, 	 11.47887333131379961060, 	 8.67461169861031144990
5.86629999999999984794, 	 14.43562681050870644128, 	 11.44527722378569123407, 	 8.70576238550927605786
5.86739999999999994884, 	 14.30727191499959261023, 	 11.41231069550610577323, 	 8.73624305965718939149
5.86850000000000004974, 	 14.18107528833367148025, 	 11.37978467394422210646, 	 8.76605155981400052667
5.86960000000000015064, 	 14.05684921332904657731, 	 11.34751671564938391157, 	 8.79518422014058920411
5.87070000000000025153, 	 13.93440781954338447690, 	 11.31533115712625203741, 	 8.82363595882898543721
5.87180000000000035243, 	 13.81356955468428182598, 	 11.28306073406970710948, 	 8.85140033031826867216
5.87290000000000045333, 	 13.69415933923455952481, 	 11.25054790525452474981, 	 8.87846958612194470106
5.87400000000000055422, 	 13.57601040859125518523, 	 11.21764795507046663658, 	 8.90483478857951915586
5.87510000000000065512, 	 13.45896585640546661011, 	 11.18422209285834867387, 	 8.93048592949346264902
5.87619999999999986784, 	 13.34287989356089632054, 	 11.15014140711774359715, 	 8.95541202608404063312
5.87729999999999996874, 	 13.22761874968767337180, 	 11.11528818916542427075, 	 8.97960123636330997954
5.87840000000000006963, 	 13.11306104481611711776, 	 11.07955607046885404543, 	 9.00304097750168708103
5.87950000000000017053, 	 12.99909823453067936327, 	 11.04285027385403950007, 	 9.02571806525273956368
5.88060000000000027143, 	 12.88563620839683210306, 	 11.00508870650533843616, 	 9.04761889445313727265
5.88170000000000037232, 	 12.77259698063869386431, 	 10.96620160690918055479, 	 9.06872964939555004094
5.88280000000000047322, 	 12.65991846480148552700, 	 10.92613218180559364612, 	 9.08903584191372004852
5.88390000000000057412, 	 12.54755327049187663135, 	 10.88483661515252087781, 	 9.10851842409325307415
5.88500000000000067502, 	 12.43556880319448509908, 	 10.84228421126552177611, 	 9.12716659191722534672
5.88609999999999988773, 	 12.32401908288061420649, 	 10.79845734024269354734, 	 9.14497100657218986441
5.88719999999999998863, 	 12.21274829313810883491, 	 10.75335132867892262709, 	 9.16192115736001078119
5.88830000000000008953, 	 12.10172521104752085819, 	 10.70697432545603255960, 	 9.17800660374906485117
5.88940000000000019043, 	 11.99095813558515821740, 	 10.65934715656658937633, 	 9.19321796797758850062
5.89050000000000029132, 	 11.88047317251216306033, 	 10.61050339984802981519, 	 9.20754743509591655481
5.89160000000000039222, 	 11.77030721401809465476, 	 10.56048921627485448482, 	 9.22098899690966256060
5.89270000000000049312, 	 11.66050527691312943546, 	 10.50936267719230166051, 	 9.23353860017031458085
5.89380000000000059401, 	 11.55111895401164900932, 	 10.45719270118451049711, 	 9.24519425033516206724
5.89490000000000069491, 	 11.44220503007774070170, 	 10.40405782871560624869, 	 9.25595610726819550962
5.89599999999999990763, 	 11.33382395874932946356, 	 10.35004511911935409785, 	 9.26582658069969333781
5.89710000000000000853, 	 11.22603879367654933219, 	 10.29524918436269409483, 	 9.27481035264222342107
5.89820000000000010942, 	 11.11891348919164812514, 	 10.23977135942692662240, 	 9.28291448715345346443
5.89930000000000021032, 	 11.01251134499015549295, 	 10.18371891473940848982, 	 9.29014841911312494460
5.90040000000000031122, 	 10.90689366589930564544, 	 10.12720423896706201106, 	 9.29652396640146250206
5.90150000000000041211, 	 10.80211292383085996960, 	 10.07034395077680422048, 	 9.30205610300205343322
5.90260000000000051301, 	 10.69822611939326506558, 	 10.01325793365100658150, 	 9.30676060294412010876
5.90370000000000061391, 	 10.59528717732875691127, 	 9.95606829003252258303, 	 9.31065485126338643340
5.90480000000000071481, 	 10.49333727273468852559, 	 9.89889843455382845150, 	 9.31375936033826867799
5.90589999999999992752, 	 10.39240853620591131801, 	 9.84187299789078906542, 	 9.31609667646622163772
5.90700000000000002842, 	 10.29252414450695951587, 	 9.78511181955611597516, 	 9.31768939629911940870
5.90810000000000012932, 	 10.19369759848028067495, 	 9.72872780079824650556, 	 9.31856243662115701909
5.90920000000000023022, 	 10.09593195260886666631, 	 9.67283330601733482013, 	 9.31874188472111164572
5.91030000000000033111, 	 9.99921915951705209125, 	 9.61753496234798355147, 	 9.31825477926800793682
5.91140000000000043201, 	 9.90353955223219983850, 	 9.56293204325576873259, 	 9.31712928960114972199
