x [cm], 	 0.69214285714285717077, 	 48.45000000000000284217, 	 96.20785714285715073402
0.00000000000000000000, 	 0.00000000000000000000, 	 0.00000000000000000000, 	 0.00000000000000000000
5.70020000000000059970, 	 0.27206969030540928411, 	 1.40097256255562263583, 	 2.59793152310693953311
5.70130000000000070060, 	 0.29995252957720552889, 	 1.41122758188701413751, 	 2.58799059578427703698
5.70239999999999991331, 	 0.32789043839094533794, 	 1.42183307685515369911, 	 2.57828572136633660250
5.70350000000000001421, 	 0.35584737033046903720, 	 1.43276709942461089042, 	 2.56881641930620396863
5.70460000000000011511, 	 0.38378661390287005517, 	 1.44400614757046863446, 	 2.55958158067086527510
5.70570000000000021600, 	 0.41167087212757785819, 	 1.45552525520533926340, 	 2.55057952433611800913
5.70680000000000031690, 	 0.43946292146328319594, 	 1.46729808641541015213, 	 2.54180783267922771884
5.70790000000000041780, 	 0.46712060096241875273, 	 1.47929703610603757724, 	 2.53326391347624113592
5.70900000000000051870, 	 0.49460317856848884377, 	 1.49149332691463620826, 	 2.52494470585796504380
5.71010000000000061959, 	 0.52187281833543708309, 	 1.50385709709791481892, 	 2.51684671688342476159
5.71119999999999983231, 	 0.54889257409695224599, 	 1.51635749402778774453, 	 2.50896588636326978161
5.71229999999999993321, 	 0.57562556267667119858, 	 1.52896278139293739784, 	 2.50129745505464251565
5.71340000000000003411, 	 0.60203502408095976861, 	 1.54164045014194561745, 	 2.49383641083940155170
5.71450000000000013500, 	 0.62808506704531952280, 	 1.55435731539426513770, 	 2.48657812151359491892
5.71560000000000023590, 	 0.65374256203079783578, 	 1.56707965700841334034, 	 2.47951762252401097797
5.71670000000000033680, 	 0.67898038660301129887, 	 1.57977335636867399771, 	 2.47264956366336052795
5.71780000000000043769, 	 0.70378272184727097560, 	 1.59240400135258441949, 	 2.46596821895797591040
5.71890000000000053859, 	 0.72815275153561498378, 	 1.60493697621049347113, 	 2.45946748950985183413
5.72000000000000063949, 	 0.75212262868517354431, 	 1.61733758131986493645, 	 2.45314090622758484983
5.72109999999999985221, 	 0.77576511431419803433, 	 1.62957239839594603126, 	 2.44698164384239991165
5.72219999999999995310, 	 0.79920676714538529950, 	 1.64160949356002561217, 	 2.44098254643636192185
5.72330000000000005400, 	 0.82264134015846024361, 	 1.65341769158197027245, 	 2.43513615911791125868
5.72440000000000015490, 	 0.84634090519576343770, 	 1.66496825676062987220, 	 2.42943476210474829102
5.72550000000000025580, 	 0.87066340966739730334, 	 1.67623639106886912487, 	 2.42387040626842420465
5.72660000000000035669, 	 0.89605513389102842137, 	 1.68720314698551976385, 	 2.41843495365109761863
5.72770000000000045759, 	 0.92304919021695430725, 	 1.69785790009849524296, 	 2.41312026018615322087
5.72880000000000055849, 	 0.95225850647132070925, 	 1.70820138820070233088, 	 2.40791824464489367941
5.72990000000000065938, 	 0.98436470625105876309, 	 1.71824927133766314213, 	 2.40282103641778777003
5.73099999999999987210, 	 1.02010525867758028440, 	 1.72803604294027191024, 	 2.39782114649330058143
5.73209999999999997300, 	 1.06025187895965755658, 	 1.73761904936707733960, 	 2.39291169338289888557
5.73320000000000007390, 	 1.10553953961057938038, 	 1.74708259316352343404, 	 2.38808674382300001326
5.73430000000000017479, 	 1.15653603213997402399, 	 1.75654188414133294316, 	 2.38334183040225688899
5.73540000000000027569, 	 1.21530224659323016212, 	 1.76614647475520092357, 	 2.37867443390691724048
5.73650000000000037659, 	 1.27980219940967598902, 	 1.77608412891085110097, 	 2.37408472974806183942
5.73760000000000047748, 	 1.35296803575572788247, 	 1.78658627252623358750, 	 2.36957630593481649584
5.73870000000000057838, 	 1.43560845547943127798, 	 1.79792469048425118672, 	 2.36515700636892267639
5.73980000000000067928, 	 1.52796655622596766477, 	 1.81040829957854976229, 	 2.36083981745316995315
5.74089999999999989200, 	 1.63044007441736593655, 	 1.82438200411718276506, 	 2.35664371171680553374
5.74199999999999999289, 	 1.74355961750325749726, 	 1.84022958469081721056, 	 2.35259445689335722207
5.74310000000000009379, 	 1.86759326491626631572, 	 1.85837389056871815640, 	 2.34872584232385372971
5.74420000000000019469, 	 2.00281393801278584377, 	 1.87927266189622277359, 	 2.34508088311853057917
5.74530000000000029559, 	 2.14944187768019778773, 	 1.90341250447440590854, 	 2.34171211770418974396
5.74640000000000039648, 	 2.30766126449591801872, 	 1.93130202645137560857, 	 2.33868191933647606717
5.74750000000000049738, 	 2.47758180257236482191, 	 1.96346465578001438956, 	 2.33606265453373440621
5.74860000000000059828, 	 2.65924190514071190350, 	 2.00043196140024859275, 	 2.33393654475776557433
5.74970000000000069917, 	 2.85260566052327524389, 	 2.04270015866193510590, 	 2.33239566776467377451
5.75079999999999991189, 	 3.05758624147592472653, 	 2.09068079455107191933, 	 2.33154254510328362571
5.75190000000000001279, 	 3.27405300744078031627, 	 2.14490283562353400981, 	 2.33148857814887522366
5.75300000000000011369, 	 3.50184712474152304296, 	 2.20590007437206869767, 	 2.33235325693570372252
5.75410000000000021458, 	 3.74078462490244190164, 	 2.27413500489155806505, 	 2.33426283447827254136
5.75520000000000031548, 	 3.99064204047441117851, 	 2.35003798901078297945, 	 2.33735269187364513854
5.75630000000000041638, 	 4.25116184764333304713, 	 2.43400597063225188066, 	 2.34175336549904589134
5.75740000000000051728, 	 4.52205719370560821346, 	 2.52639828566471447147, 	 2.34754269896776213145
5.75850000000000061817, 	 4.80301641977408788620, 	 2.62753342692777680512, 	 2.35390403595739172715
5.75960000000000071907, 	 5.09370605668329989868, 	 2.73768640628023085526, 	 2.36157230518821492637
5.76069999999999993179, 	 5.39377430189718598541, 	 2.85708608334026159525, 	 2.37233776826476905342
5.76180000000000003268, 	 5.70285455448114309007, 	 2.98591113140863395614, 	 2.38578271385883899924
5.76290000000000013358, 	 6.02056815874519291043, 	 3.12428841530661616233, 	 2.40150978746274113007
5.76400000000000023448, 	 6.34652754711799271803, 	 3.27229718183086815131, 	 2.41914449182178392661
5.76510000000000033538, 	 6.68033751308743628528, 	 3.42997251886520482245, 	 2.43894231226050939298
5.76620000000000043627, 	 7.02159531439344419823, 	 3.59730444383642788964, 	 2.46114807677717761791
5.76730000000000053717, 	 7.36988756295723312917, 	 3.77423504940035003941, 	 2.48594395192443995413
5.76840000000000063807, 	 7.72479345427937502677, 	 3.96065694076875374208, 	 2.51338846265536375313
5.76949999999999985079, 	 8.08588848713100638577, 	 4.15641414781446894011, 	 2.54346806763893606984
5.77059999999999995168, 	 8.45274502591172982591, 	 4.36130454509827369947, 	 2.57623023254673855220
5.77170000000000005258, 	 8.82493152103743483394, 	 4.57508233796498320345, 	 2.61176730606577978122
5.77280000000000015348, 	 9.20202018508194541369, 	 4.79746032826361634704, 	 2.65015317461628407969
5.77390000000000025437, 	 9.58358058340358098803, 	 5.02811226720825743541, 	 2.69144090093276400211
5.77500000000000035527, 	 9.96917756069440663680, 	 5.26667549010946256516, 	 2.73566255670384039789
5.77610000000000045617, 	 10.35837037664441062645, 	 5.51275395217958852356, 	 2.78283257335863387638
5.77720000000000055707, 	 10.75071268746081187828, 	 5.76592144109719750844, 	 2.83295175566646806331
5.77830000000000065796, 	 11.14575253350027139732, 	 6.02572479092768631403, 	 2.88600967353639603630
5.77939999999999987068, 	 11.54303217047702290188, 	 6.29168702853114680806, 	 2.94198613747047987843
5.78049999999999997158, 	 11.94208774404123474255, 	 6.56331042828782518228, 	 3.00085210984627970277
5.78160000000000007248, 	 12.34244873426606048383, 	 6.84007947807413163588, 	 3.06257031988649508492
5.78270000000000017337, 	 12.74363564014296734683, 	 7.12146376483298393367, 	 3.12709575352340118926
5.78380000000000027427, 	 13.14516503886730625084, 	 7.40692078770307915647, 	 3.19437984135901675842
5.78490000000000037517, 	 13.54654643787379164621, 	 7.69589870142556797816, 	 3.26434486579221339042
5.78600000000000047606, 	 13.94728286966559238635, 	 7.98783892961324681892, 	 3.33689774995285137749
5.78710000000000057696, 	 14.34687088570747981464, 	 8.28217865246373463606, 	 3.41196307128891795912
5.78820000000000067786, 	 14.74480034870560807292, 	 8.57835316746005993593, 	 3.48947280666194714627
5.78929999999999989058, 	 15.14055350480057171580, 	 8.87579806687033290302, 	 3.56935695249744266988
5.79039999999999999147, 	 15.53361045245934946024, 	 9.17395130403402170316, 	 3.65153941611155330449
5.79150000000000009237, 	 15.92344518331694835922, 	 9.47225521383128743480, 	 3.73593731751069269009
5.79260000000000019327, 	 16.30952915864816077374, 	 9.77015842741367102064, 	 3.82246178039715678310
5.79370000000000029416, 	 16.69133241262661115911, 	 10.06711770778279557703, 	 3.91101930758619698025
5.79480000000000039506, 	 17.06832612405450433357, 	 10.36260000127269798043, 	 4.00151322567771572380
5.79590000000000049596, 	 17.43998435948745395763, 	 10.65608773324518487868, 	 4.09384291101056518869
5.79700000000000059686, 	 17.80578504225691460761, 	 10.94708449288277662959, 	 4.18790621125527984248
5.79810000000000069775, 	 18.16521138882308861184, 	 11.23507580129420801995, 	 4.28359911059489828489
5.79919999999999991047, 	 18.51775366753361495853, 	 11.51957552764881675955, 	 4.38081585804103657011
5.80030000000000001137, 	 18.86291098652246134293, 	 11.80011629735037992361, 	 4.47945023708036860199
5.80140000000000011227, 	 19.20019310233734444182, 	 12.07624670168301861395, 	 4.57939729767568604046
5.80250000000000021316, 	 19.52912228270929873020, 	 12.34753243868908967329, 	 4.68055148966958434187
5.80360000000000031406, 	 19.84923519060380669998, 	 12.61355672079780276817, 	 4.78280466099451295747
5.80470000000000041496, 	 20.16008476318939557359, 	 12.87392059857152126767, 	 4.88604757157334379514
5.80580000000000051585, 	 20.46124208530090626823, 	 13.12824330387951476951, 	 4.99017043516465896857
5.80690000000000061675, 	 20.75229798440196660181, 	 13.37616268340632430522, 	 5.09506281450090359186
5.80800000000000071765, 	 21.03286460654000222803, 	 13.61733569034986679469, 	 5.20061413355014323656
5.80909999999999993037, 	 21.30257693977364752413, 	 13.85143867660467620340, 	 5.30671480671473272395
5.81020000000000003126, 	 21.56109419387982484295, 	 14.07816760388115540081, 	 5.41325626903353018804
5.81130000000000013216, 	 21.80810101902345010672, 	 14.29723826894189109282, 	 5.52013079660223571210
5.81240000000000023306, 	 22.04330855937550737167, 	 14.50838653369002173577, 	 5.62723142979606993919
5.81350000000000033396, 	 22.26645533819587186031, 	 14.71136854737338950372, 	 5.73445199531828198047
5.81460000000000043485, 	 22.47730835853958097914, 	 14.90596095305995305580, 	 5.84168719499270050477
5.81570000000000053575, 	 22.67566280973297665469, 	 15.09196107221674409971, 	 5.94883273731890049874
5.81680000000000063665, 	 22.86134382388256369723, 	 15.26918706379037260490, 	 6.05578562819722776567
5.81789999999999984936, 	 23.03420562991065523306, 	 15.43747806226654262218, 	 6.16244418762920087573
5.81899999999999995026, 	 23.19412977889682991872, 	 15.59669428146143310698, 	 6.26870801135027466700
5.82010000000000005116, 	 23.34102576831304531879, 	 15.74671707049213686958, 	 6.37447832317750773257
5.82120000000000015206, 	 23.47483224653930733439, 	 15.88744893488344267496, 	 6.47965822450106188057
5.82230000000000025295, 	 23.59551752424303572298, 	 16.01881351160453803573, 	 6.58415289316401342035
5.82340000000000035385, 	 23.70307926039997425960, 	 16.14075548916881785999, 	 6.68786976410079425648
5.82450000000000045475, 	 23.79754414029524411944, 	 16.25324047624460277461, 	 6.79071870532554466848
5.82560000000000055564, 	 23.87896527312020467093, 	 16.35625482735831681680, 	 6.89261219399662916629
5.82670000000000065654, 	 23.94742237741020218778, 	 16.44980543585768373305, 	 6.99346551263435234347
5.82779999999999986926, 	 24.00302178246743523005, 	 16.53391951005477977787, 	 7.09319703686015490263
5.82889999999999997016, 	 24.04589315387250536560, 	 16.60864431793834938844, 	 7.19172817744333237044
5.83000000000000007105, 	 24.07618800497695943363, 	 16.67404699543034496401, 	 7.28898353238649665542
5.83110000000000017195, 	 24.09408284715592074576, 	 16.73021469572098496315, 	 7.38489122862365743316
5.83220000000000027285, 	 24.09977838342035383334, 	 16.77724998434771919165, 	 7.47938301639640901186
5.83330000000000037375, 	 24.09349307328185219035, 	 16.81527590886642187229, 	 7.57239452906026055956
5.83440000000000047464, 	 24.07546113473749116451, 	 16.84443292231124189584, 	 7.66386567256234041423
5.83550000000000057554, 	 24.04593192031082793392, 	 16.86487869563788066785, 	 7.75374032853742622962
5.83660000000000067644, 	 24.00516998217023001416, 	 16.87678725118394140736, 	 7.84196583082062392833
5.83769999999999988916, 	 23.95345481103296236824, 	 16.88034822774537957457, 	 7.92849321774005844077
5.83879999999999999005, 	 23.89107990311875795442, 	 16.87576610280897071448, 	 8.01327759111610049558
5.83990000000000009095, 	 23.81835142310076847139, 	 16.86325931038923897631, 	 8.09627832857106533027
5.84100000000000019185, 	 23.73558678470221394718, 	 16.84305928417776598849, 	 8.17745918018296436003
5.84210000000000029274, 	 23.64309712653452422160, 	 16.81540945171665413227, 	 8.25678829279093484672
5.84320000000000039364, 	 23.54119847992093639277, 	 16.78056334083970924098, 	 8.33423818946920746953
5.84430000000000049454, 	 23.43019262555230497469, 	 16.73877364779988496934, 	 8.40978571992687307102
5.84540000000000059543, 	 23.31035383207047928522, 	 16.69030661673428639347, 	 8.48341198939839991056
5.84650000000000069633, 	 23.18203329171861071245, 	 16.63550191616678119999, 	 8.55510225242181654437
5.84759999999999990905, 	 23.04570299515510711785, 	 16.57463745161458490429, 	 8.62484640813860359287
5.84870000000000000995, 	 22.90182457111624003687, 	 16.50796754199373594929, 	 8.69264107617787118443
5.84980000000000011084, 	 22.75080998737492876671, 	 16.43579172990039793945, 	 8.75847926002618670793
5.85090000000000021174, 	 22.59303435296691020540, 	 16.35840902409380248628, 	 8.82235384784474163666
5.85200000000000031264, 	 22.42885361887364226163, 	 16.27612122826990059821, 	 8.88426485416264988260
5.85310000000000041354, 	 22.25861613409261963170, 	 16.18923202136271299878, 	 8.94422002598436449716
5.85420000000000051443, 	 22.08266819591209895179, 	 16.09804638655034025874, 	 9.00223308144394529506
5.85530000000000061533, 	 21.90135579390955200552, 	 16.00286959111722495663, 	 9.05832165176226133951
5.85640000000000071623, 	 21.71502302273919227105, 	 15.90400603184528804945, 	 9.11250580699936918450
5.85749999999999992895, 	 21.52401101928430193766, 	 15.80175801484263864438, 	 9.16480773056056285952
5.85860000000000002984, 	 21.32873310441907932500, 	 15.69642457067612539845, 	 9.21525140111012674993
5.85970000000000013074, 	 21.12955373752064502924, 	 15.58830035242337963552, 	 9.26386250738569927421
5.86080000000000023164, 	 20.92679203376440710827, 	 15.47767462846876895810, 	 9.31066825546525222990
5.86190000000000033253, 	 20.72074949549397970827, 	 15.36483047729983653085, 	 9.35569724523944579175
5.86300000000000043343, 	 20.51172103233609078643, 	 15.25004413552102633389, 	 9.39897932815681791396
5.86410000000000053433, 	 20.30000233431824341324, 	 15.13358434102869587434, 	 9.44054662111749109954
5.86520000000000063523, 	 20.08588602122178201626, 	 15.01571166496316322991, 	 9.48043248025280149704
5.86629999999999984794, 	 19.86965976492389174268, 	 14.89667764570181951456, 	 9.51867156683592874344
5.86739999999999994884, 	 19.65160478588381920417, 	 14.77672400901168003884, 	 9.55529942413702215731
5.86850000000000004974, 	 19.43199461671938621521, 	 14.65608204151817339778, 	 9.59035248702041798197
5.86960000000000015064, 	 19.21109417743252478772, 	 14.53497207999570228765, 	 9.62386737432954575411
5.87070000000000025153, 	 18.98915812431271277205, 	 14.41360317835927773444, 	 9.65588137975886873221
5.87180000000000035243, 	 18.76643203899730494300, 	 14.29217282958021328909, 	 9.68643241475362692938
5.87290000000000045333, 	 18.54315212722667283174, 	 14.17086673221768045039, 	 9.71555878580574727721
5.87400000000000055422, 	 18.31954463117356368684, 	 14.04985871240962680417, 	 9.74329906817679436415
5.87510000000000065512, 	 18.09582458700376506044, 	 13.92931071807553422559, 	 9.76969179724761183081
5.87619999999999986784, 	 17.87219584695584728706, 	 13.80937281708955133297, 	 9.79477521702623121769
5.87729999999999996874, 	 17.64885062809106841542, 	 13.69018431395190482647, 	 9.81858718268271069007
5.87840000000000006963, 	 17.42597039089052302074, 	 13.57187291942567597403, 	 9.84116507118089600681
5.87950000000000017053, 	 17.20372457815949829296, 	 13.45455171043835917999, 	 9.86254480765497554273
5.88060000000000027143, 	 16.98226967056018565927, 	 13.33832403615523709561, 	 9.88276149095350930907
5.88170000000000037232, 	 16.76175268302999299408, 	 13.22328197294975282716, 	 9.90184970139874565120
5.88280000000000047322, 	 16.54231280187964259198, 	 13.10950646573111555426, 	 9.91984334695986902375
5.88390000000000057412, 	 16.32407709964629560773, 	 12.99706765311228373605, 	 9.93677522166519899827
5.88500000000000067502, 	 16.10717906705886193208, 	 12.88602514601281789908, 	 9.95267673065159996781
5.88609999999999988773, 	 15.89179061712579432708, 	 12.77642832978164655344, 	 9.96757788966996294278
5.88719999999999998863, 	 15.67799199136790200271, 	 12.66831669908292568039, 	 9.98150747965176599052
5.88830000000000008953, 	 15.46584186181118525383, 	 12.56172027566314497449, 	 9.99449310510749278080
5.88940000000000019043, 	 15.25539538135736172819, 	 12.45666015406906623753, 	 10.00656132261524966509
5.89050000000000029132, 	 15.04670502981702284728, 	 12.35314902153226590542, 	 10.01773772960654440567
5.89160000000000039222, 	 14.83981897011890183080, 	 12.25119156774211148786, 	 10.02804617545372245502
5.89270000000000049312, 	 14.63477946120489825432, 	 12.15078477087970121318, 	 10.03750950686496423714
5.89380000000000059401, 	 14.43162188003686807747, 	 12.05191815312613101696, 	 10.04614973705875868859
5.89490000000000069491, 	 14.23037430265087799341, 	 11.95457408764310258675, 	 10.05398764218567642104
5.89599999999999990763, 	 14.03105733035468993819, 	 11.85872819630142060987, 	 10.06104259941738021666
5.89710000000000000853, 	 13.83368412854216344954, 	 11.76434980086843573588, 	 10.06733265839337754244
5.89820000000000010942, 	 13.63826071462071887197, 	 11.67140241045743387360, 	 10.07287463096013446773
5.89930000000000021032, 	 13.44478633492810182304, 	 11.57984423019803976729, 	 10.07768416108217301996
5.90040000000000031122, 	 13.25325386322209020307, 	 11.48962867543099619638, 	 10.08177576335199709945
5.90150000000000041211, 	 13.06365020071216953568, 	 11.40070488148883143253, 	 10.08516283906493171685
5.90260000000000051301, 	 12.87595667521565090397, 	 11.31301820333640684169, 	 10.08785768383607184262
5.90370000000000061391, 	 12.69014944316110593547, 	 11.22651070187589184002, 	 10.08987149726227983138
5.90480000000000071481, 	 12.50619989798224551691, 	 11.14112161512710663658, 	 10.09121440006783743115
5.90589999999999992752, 	 12.32407508590492639655, 	 11.05678781321595138820, 	 10.09189613010532937665
5.90700000000000002842, 	 12.14373811943061376439, 	 10.97344423626036302721, 	 10.09192513826165082946
5.90810000000000012932, 	 11.96514593876151621998, 	 10.89102431419933481038, 	 10.09130686305381630063
5.90920000000000023022, 	 11.78825527323026278737, 	 10.80946036516232666713, 	 10.09004601315181481880
5.91030000000000033111, 	 11.61301839690644577274, 	 10.72868393711908474586, 	 10.08814740491070871542
5.91140000000000043201, 	 11.43939024109656266148, 	 10.64862617092238927796, 	 10.08561619850862633996
