x [cm], 	 0.40000000000000002220, 	 2.00000000000000000000, 	 3.60000000000000008882
0.00000000000000000000, 	 0.00000000000000000000, 	 0.00000000000000000000, 	 0.00000000000000000000
5.70020000000000059970, 	 2.89003995620293752111, 	 4.28931219980024103222, 	 5.71732037023853756352
5.70130000000000070060, 	 4.04568310239847317433, 	 4.88895685232484744631, 	 6.02301205379519011274
5.70239999999999991331, 	 6.63950761284940504936, 	 6.89081751955390320319, 	 7.52543006271635395166
5.70350000000000001421, 	 10.31618070504701023538, 	 10.09435512797774947558, 	 10.21997589002966222438
5.70460000000000011511, 	 14.79963991486029684097, 	 14.22615686194890827210, 	 13.82316873799694256775
5.70570000000000021600, 	 19.69962493692905880494, 	 18.83566992879174151199, 	 17.93886071485998456865
5.70680000000000031690, 	 24.58352948709150709306, 	 23.47252032304730207102, 	 22.21129053269716635555
5.70790000000000041780, 	 29.22049786496533840818, 	 27.93159725201872944922, 	 26.43877852925340476986
5.70900000000000051870, 	 33.60694798991197984606, 	 32.19181756530903015801, 	 30.55578808257756051603
5.71010000000000061959, 	 37.81636435164244858242, 	 36.28484633093044209318, 	 34.54367183174746713803
5.71119999999999983231, 	 41.92927342421440073394, 	 40.27720658935252373567, 	 38.43976497317571983103
5.71229999999999993321, 	 46.00732729068910487058, 	 44.22608192859654252516, 	 42.28990060110612603239
5.71340000000000003411, 	 50.09227612830537879063, 	 48.17967944296406557214, 	 46.13647230568664525663
5.71450000000000013500, 	 54.20665659650806844638, 	 52.16275197913134320515, 	 50.00333837567141870295
5.71560000000000023590, 	 58.35182634906202281400, 	 56.17886400784098555050, 	 53.89797451174999309842
5.71670000000000033680, 	 62.51757955400812249991, 	 60.21894644478988567471, 	 57.81501029296684635028
5.71780000000000043769, 	 66.68844745450866184910, 	 64.26662072007110282357, 	 61.73958162830531648524
5.71890000000000053859, 	 70.84835104762167645731, 	 68.30393750715388989647, 	 65.65452825558529070804
5.72000000000000063949, 	 74.98574112386071988112, 	 72.31806851116787981937, 	 69.54812400977795050494
5.72109999999999985221, 	 79.09729903438032749818, 	 76.30580897477946678009, 	 73.41843949256659129787
5.72219999999999995310, 	 83.18813059366227946612, 	 80.27366895204654895224, 	 77.27291792821425531201
5.72330000000000005400, 	 87.26855765314033419600, 	 84.23404947399197340019, 	 81.12436499872298156788
5.72440000000000015490, 	 91.34946774402570213169, 	 88.19991853693623795607, 	 84.98586044401172046037
5.72550000000000025580, 	 95.43848721044906824318, 	 92.18051563508262802316, 	 88.86681555046857283742
5.72660000000000035669, 	 99.53827983942208845747, 	 96.17945140600058095970, 	 92.77125441439450526104
5.72770000000000045759, 	 103.64698743918002321607, 	 100.19516269503962746512, 	 96.69819268187126226621
5.72880000000000055849, 	 107.75995732912556945848, 	 104.22277572341559448432, 	 100.64327241423032432976
5.72990000000000065938, 	 111.87171066599073299130, 	 108.25625635809241487095, 	 104.60070206717216478864
5.73099999999999987210, 	 115.97741608632465215578, 	 112.29006300865370349129, 	 108.56482675474737220611
5.73209999999999997300, 	 120.07360088204791281896, 	 116.32000427683252041788, 	 112.53104062517408578969
5.73320000000000007390, 	 124.15819635395358488950, 	 120.34338101131926634935, 	 116.49606191095065810259
5.73430000000000017479, 	 128.23018125972811276370, 	 124.35867230954998774450, 	 120.45775831042033132690
5.73540000000000027569, 	 132.28909371447730336513, 	 128.36504477712915672782, 	 124.41475440365218219085
5.73650000000000037659, 	 136.33460065248544879069, 	 132.36189024613139508801, 	 128.36601215628039085459
5.73760000000000047748, 	 140.36621935888942402926, 	 136.34850809945010041702, 	 132.31051476971455826970
5.73870000000000057838, 	 144.38320983412725695416, 	 140.32396650095748213971, 	 136.24710626020154791149
5.73980000000000067928, 	 148.38460462023525110453, 	 144.28711642048781982339, 	 140.17447719120025340089
5.74089999999999989200, 	 152.36931784785878107868, 	 148.23669927870909646117, 	 144.09124700840101240829
5.74199999999999999289, 	 156.33627199194330614773, 	 152.17148043857631023457, 	 147.99607889940878635571
5.74310000000000009379, 	 160.28449433969012716261, 	 156.09035331966123294478, 	 151.88777239831262022562
5.74420000000000019469, 	 164.21315860719465717921, 	 159.99238466028475613712, 	 155.76530378685870914524
5.74530000000000029559, 	 168.12157233070286110888, 	 163.87679967486266718879, 	 159.62781005785768684291
5.74640000000000039648, 	 172.00912639108841517555, 	 167.74292380876471497686, 	 163.47453086578917691440
5.74750000000000049738, 	 175.87523106176178089299, 	 171.59010849774742268892, 	 167.30473457821221927588
5.74860000000000059828, 	 179.71926102478775533200, 	 175.41766628504970526592, 	 171.11765267827559000580
5.74970000000000069917, 	 183.54052288637353740341, 	 179.22483067650588850483, 	 174.91243667044366816299
5.75079999999999991189, 	 187.33824679459510775814, 	 183.01074305996468183366, 	 178.68814097025415321696
5.75190000000000001279, 	 191.11159710102339204241, 	 186.77446215714869026669, 	 182.44372898707908348115
5.75300000000000011369, 	 194.85969371395205484987, 	 190.51498678055611435411, 	 186.17809352503792297284
5.75410000000000021458, 	 198.58163511187376570888, 	 194.23128161920192269463, 	 189.89008153555585067807
5.75520000000000031548, 	 202.27651636565855142180, 	 197.92229835646142532823, 	 193.57851574175955988721
5.75630000000000041638, 	 205.94343657513917378310, 	 201.58699047115570124333, 	 197.24219979452226425565
5.75740000000000051728, 	 209.58165031222191032612, 	 205.22425109645749330411, 	 200.87822058339796171822
5.75850000000000061817, 	 213.19078506969992758968, 	 208.83311043822956776239, 	 204.48634281058872375070
5.75960000000000071907, 	 216.77015910875925897017, 	 212.41312631274212208154, 	 208.06639674077507606853
5.76069999999999993179, 	 220.31893061488705143347, 	 215.96348918998637600453, 	 211.61760640696931545790
5.76180000000000003268, 	 223.83602804553675014176, 	 219.48304066837599179962, 	 215.13875296486884280966
5.76290000000000013358, 	 227.32026044629230909777, 	 222.97042985362216427347, 	 218.62837564561758085802
5.76400000000000023448, 	 230.77045568057170044085, 	 226.42429184492831950593, 	 222.08496721457905209718
5.76510000000000033538, 	 234.18555269444397026746, 	 229.84336571241325941628, 	 225.50710006664397155873
5.76620000000000043627, 	 237.56462629038929890157, 	 233.22653369691386160412, 	 228.89347584166560523045
5.76730000000000053717, 	 240.90686320362550532082, 	 236.57280371719826916888, 	 232.24291999500104566323
5.76840000000000063807, 	 244.21152009295667539845, 	 239.88126890825171244614, 	 235.55435175681415671534
5.76949999999999985079, 	 247.47788691760430879185, 	 243.15106950619590975293, 	 238.82675093314304604064
5.77059999999999995168, 	 250.70526418428249826320, 	 246.38136717658960606059, 	 242.05913270102652745663
5.77170000000000005258, 	 253.89295441427199762074, 	 249.57133410072563606263, 	 245.25053535665108483954
5.77280000000000015348, 	 257.04026446548851936313, 	 252.72015430227639853911, 	 248.40002017127125100160
5.77390000000000025437, 	 260.14651409025509565254, 	 255.82703270794272043531, 	 251.50667978342701758265
5.77500000000000035527, 	 263.21104654336369321754, 	 258.89120733719499867220, 	 254.56965062578387914982
5.77610000000000045617, 	 266.23323802613964517150, 	 261.91196070412655672044, 	 257.58812508040489319683
5.77720000000000055707, 	 269.21250392218081515239, 	 264.88862774208701011958, 	 260.56136025526211597025
5.77830000000000065796, 	 272.14830110777819527357, 	 267.82059915708703101700, 	 263.48868203657264075446
5.77939999999999987068, 	 275.04012686776951568390, 	 270.70732067608628312883, 	 266.36948479748843965353
5.78049999999999997158, 	 277.88751575181657926805, 	 273.54828963616478176846, 	 269.20322803962858415616
5.78160000000000007248, 	 280.69003538383361728847, 	 276.34304990693271975033, 	 271.98943092467732185469
5.78270000000000017337, 	 283.44728326440969112809, 	 279.09118845888275473044, 	 274.72766933193213390041
5.78380000000000027427, 	 286.15888386460011361123, 	 281.79232988617684441124, 	 277.41756553139151719733
5.78490000000000037517, 	 288.82447998193566718328, 	 284.44612441122950485806, 	 280.05877452113605841078
5.78600000000000047606, 	 291.44372867211370703444, 	 287.05224549467669703517, 	 282.65098789352708763545
5.78710000000000057696, 	 294.01631274484714140272, 	 289.61040674896099744728, 	 285.19395689432042217959
5.78820000000000067786, 	 296.54196102811744140126, 	 292.12038660635823816847, 	 287.68751727697821252150
5.78929999999999989058, 	 299.02046090487243645839, 	 294.58204120248342405830, 	 290.13159742151088948958
5.79039999999999999147, 	 301.45165301062849039226, 	 296.99529546828540560455, 	 292.52620381079015032810
5.79150000000000009237, 	 303.83541107719281626487, 	 299.36011748743715088494, 	 294.87139183820096377531
5.79260000000000019327, 	 306.17161849447398935808, 	 301.67649008952514577686, 	 297.16723639169669013427
5.79370000000000029416, 	 308.46015271552914782660, 	 303.94439210910115889419, 	 299.41381318579686876546
5.79480000000000039506, 	 310.70088182456805725451, 	 306.16379377278855145050, 	 301.61119403421605511539
5.79590000000000049596, 	 312.89367076253756749793, 	 308.33466320092264822961, 	 303.75945274853683031324
5.79700000000000059686, 	 315.03839142011418061884, 	 310.45697745612153539696, 	 305.85867532574002325418
5.79810000000000069775, 	 317.13493115745262684868, 	 312.53073199841219320660, 	 307.90896866960343913888
5.79919999999999991047, 	 319.18319689618584789059, 	 314.55594531979045314074, 	 309.91046488370369615950
5.80030000000000001137, 	 321.18311467784531032521, 	 316.53265845116220589262, 	 311.86332057206323042919
5.80140000000000011227, 	 323.13462606044470248889, 	 318.46093074424680935408, 	 313.76771238310959688533
5.80250000000000021316, 	 325.03768326519622178239, 	 320.34083402415751606895, 	 315.62383072534930761321
5.80360000000000031406, 	 326.89224460818473971813, 	 322.17244685453994179625, 	 317.43187335369145785080
5.80470000000000041496, 	 328.69827105486655227651, 	 323.95584994611527918096, 	 319.19203993612495651178
5.80580000000000051585, 	 330.45572409912006150989, 	 325.69112304161780002687, 	 320.90452805643468536800
5.80690000000000061675, 	 332.16456474987239744223, 	 327.37834311519571883764, 	 322.56953059295386765370
5.80800000000000071765, 	 333.82475321651304511761, 	 329.01758346386736775457, 	 324.18723409981083705134
5.80909999999999993037, 	 335.43624886446991695266, 	 330.60891320560489248237, 	 325.75781770684397997684
5.81020000000000003126, 	 336.99901010535825207626, 	 332.15239678105376697204, 	 327.28145211356127219915
5.81130000000000013216, 	 338.51299403927663433933, 	 333.64809322515213807492, 	 328.75829841983733103916
5.81240000000000023306, 	 339.97815581828712083734, 	 335.09605513542697963203, 	 330.18850663930987821004
5.81350000000000033396, 	 341.39444757427349941281, 	 336.49632699178914663207, 	 331.57221327545602207465
5.81460000000000043485, 	 342.76181690908515520277, 	 337.84894318059292572798, 	 332.90953929918168796576
5.81570000000000053575, 	 344.08020654589091691378, 	 339.15392779543105916673, 	 334.20059048866198736505
5.81680000000000063665, 	 345.34955554574133884671, 	 340.41129611123460563249, 	 335.44545891733901044063
5.81789999999999984936, 	 346.56980035635115200421, 	 341.62105532478932445883, 	 336.64422256588869686311
5.81899999999999995026, 	 347.74087350187460287998, 	 342.78320230424566261718, 	 337.79694193303686233776
5.82010000000000005116, 	 348.86270101059284343137, 	 343.89772056730981830697, 	 338.90365739587900861807
5.82120000000000015206, 	 349.93520164416247553163, 	 344.96457982461038227484, 	 339.96438967978212986054
5.82230000000000025295, 	 350.95828835102395260037, 	 345.98373776711127902672, 	 340.97914169880459667183
5.82340000000000035385, 	 351.93187021564278893493, 	 346.95514238498122949750, 	 341.94790105875574681704
5.82450000000000045475, 	 352.85585445664361259333, 	 347.87873453061433792755, 	 342.87064275002273916471
5.82560000000000055564, 	 353.73014356564772242564, 	 348.75443992794811265412, 	 343.74730960095848786295
5.82670000000000065654, 	 354.55462007303799509828, 	 349.58215547588133631507, 	 344.57781685261062420977
5.82779999999999986926, 	 355.32917034391869037790, 	 350.36178570455837189002, 	 345.36209455198121531794
5.82889999999999997016, 	 356.05370072840207740228, 	 351.09325250116631877972, 	 346.10008029042029420452
5.83000000000000007105, 	 356.72812652564346080908, 	 351.77648130124902081661, 	 346.79170615071541305952
5.83110000000000017195, 	 357.35235883764073605562, 	 352.41138715353969246280, 	 347.43688740157807615105
5.83220000000000027285, 	 357.92629744355548382373, 	 352.99786718616655889491, 	 348.03551631227367124666
5.83330000000000037375, 	 358.44983028276038794502, 	 353.53580014676703058285, 	 348.58746206584953597485
5.83440000000000047464, 	 358.92283731414613612287, 	 354.02505083885370140706, 	 349.09257528684287308351
5.83550000000000057554, 	 359.34519600495485747160, 	 354.46547654193267362643, 	 349.55069459735494774577
5.83660000000000067644, 	 359.71678612731517432621, 	 354.85693272597762870646, 	 349.96165245526140097354
5.83769999999999988916, 	 360.03749234082221164499, 	 355.19927620176963500853, 	 350.32527834259451537946
5.83879999999999999005, 	 360.30720417797823529327, 	 355.49236522005492133758, 	 350.64139885268264151819
5.83990000000000009095, 	 360.52581411808262146224, 	 355.73605731059694790019, 	 350.90983555274465288676
5.84100000000000019185, 	 360.69321512332453494309, 	 355.93020653924548923897, 	 351.13040248430286283110
5.84210000000000029274, 	 360.80929912972868578436, 	 356.07466195242363937723, 	 351.30290504089657588338
5.84320000000000039364, 	 360.87395725460595485856, 	 356.16926804899355829548, 	 351.42714092174583129236
5.84430000000000049454, 	 360.88708156363088619401, 	 356.21386710080014381674, 	 351.50290295651376482056
5.84540000000000059543, 	 360.84856770663003544541, 	 356.20830253199204662451, 	 351.52998300620708960196
5.84650000000000069633, 	 360.75831760362308386902, 	 356.15242239672562618580, 	 351.50817595620924294053
5.84759999999999990905, 	 360.61624152905142182135, 	 356.04608216629202388503, 	 351.43728298554992761638
5.84870000000000000995, 	 360.42225931340527722568, 	 355.88914648921377192892, 	 351.31711379534959860393
5.84980000000000011084, 	 360.17630076004269312762, 	 355.68148999868157034143, 	 351.14748781393012677654
5.85090000000000021174, 	 359.87830552719924526173, 	 355.42299742971050591223, 	 350.92823462441026549641
5.85200000000000031264, 	 359.52822278836879377195, 	 355.11356341699894301200, 	 350.65919400869506716845
5.85310000000000041354, 	 359.12601095763091052504, 	 354.75309232210588561429, 	 350.34021597730503572166
5.85420000000000051443, 	 358.67163765280065490515, 	 354.34149830582651929944, 	 349.97116101225446982426
5.85530000000000061533, 	 358.16507993207068238917, 	 353.87870571053440471587, 	 349.55190062378301263379
5.85640000000000071623, 	 357.60632476823343495198, 	 353.36464972453558175403, 	 349.08231818736129525860
5.85749999999999992895, 	 356.99536961463235229530, 	 352.79927713782808496035, 	 348.56230982673372409408
5.85860000000000002984, 	 356.33222287536528938290, 	 352.18254699580364786016, 	 347.99178525701671560455
5.85970000000000013074, 	 355.61690453804715161823, 	 351.51443168329990385246, 	 347.37066958745947431453
5.86080000000000023164, 	 354.84944779461483221894, 	 350.79491939684493218010, 	 346.69890678820655693926
5.86190000000000033253, 	 354.02990145584470838003, 	 350.02401734985750181295, 	 345.97646330167532369160
5.86300000000000043343, 	 353.15833147255170842982, 	 349.20175348072768883867, 	 345.20332928126009619518
5.86410000000000053433, 	 352.23482001823316522859, 	 348.32817500159649171110, 	 344.37951625923102483284
5.86520000000000063523, 	 351.25946226320127152576, 	 347.40334424890977516043, 	 343.50505233305261754140
5.86629999999999984794, 	 350.23236257101535784386, 	 346.42733405562751158868, 	 342.57997738723986458353
5.86739999999999994884, 	 349.15363215894393533745, 	 345.40022505107657480039, 	 341.60434068963104436989
5.86850000000000004974, 	 348.02338932224671452786, 	 344.32210608949924335320, 	 340.57820180373431639964
5.86960000000000015064, 	 346.84176189402285217511, 	 343.19307732447526859687, 	 339.50163410171938949134
5.87070000000000025153, 	 345.60889064852602814426, 	 342.01325440047452275394, 	 338.37472932242479828346
5.87180000000000035243, 	 344.32493233036223045929, 	 340.78277225298506891704, 	 337.19760173273243708536
5.87290000000000045333, 	 342.99006153662941187577, 	 339.50178759683734597274, 	 335.97039095742042036363
5.87400000000000055422, 	 341.60447126247322557901, 	 338.17047982389294702443, 	 334.69326313793169447308
5.87510000000000065512, 	 340.16837233865021516976, 	 336.78905052345157855598, 	 333.36641058297863082771
5.87619999999999986784, 	 338.68199215568944282495, 	 335.35772199877044386085, 	 331.99005006714935461787
5.87729999999999996874, 	 337.14557248793704502532, 	 333.87673431364612497418, 	 330.56441911469789829425
5.87840000000000006963, 	 335.55936740450204069930, 	 332.34634325474314664461, 	 329.08977532064648130472
5.87950000000000017053, 	 333.92364630014242266043, 	 330.76682632034913922325, 	 327.56640803393696614876
5.88060000000000027143, 	 332.23870749932319768050, 	 329.13850159588855603943, 	 325.99466087271633796263
5.88170000000000037232, 	 330.50488894500301739754, 	 327.46173708106130106898, 	 324.37493205481467839491
5.88280000000000047322, 	 328.72255479312087800281, 	 325.73692870887975914229, 	 322.70764070085726871184
5.88390000000000057412, 	 326.89206251229308008988, 	 323.96445845795523155175, 	 320.99318108654546222169
5.88500000000000067502, 	 325.01373517575865434992, 	 322.14466285633977804537, 	 319.23189552714410410772
5.88609999999999988773, 	 323.08785859745853485947, 	 320.27783254915840416288, 	 317.42408084836313264532
5.88719999999999998863, 	 321.11470341033333397718, 	 318.36424045679729033509, 	 315.57002099200343536722
5.88830000000000008953, 	 319.09455668359476021578, 	 316.40417963938801904078, 	 313.67002573662472286742
5.88940000000000019043, 	 317.02774562380284351093, 	 314.39799104961281273063, 	 311.72445735145976186686
5.89050000000000029132, 	 314.91464441232858462172, 	 312.34607155817201373793, 	 309.73373750639746049274
5.89160000000000039222, 	 312.75959104473668048740, 	 310.24895892025801913405, 	 307.69818594686813639782
5.89270000000000049312, 	 310.56252408498585282359, 	 308.10754686158736603829, 	 305.61717923452118839123
5.89380000000000059401, 	 308.32033520453722985621, 	 305.92078397235178499614, 	 303.49090666850815978250
5.89490000000000069491, 	 306.03228776990164305971, 	 303.68835612039879379154, 	 301.31946407326728376574
5.89599999999999990763, 	 303.69884720016523260711, 	 301.41083688030221310328, 	 299.10347637111698304579
5.89710000000000000853, 	 301.32089976341455894726, 	 299.08930877893664046496, 	 296.84410326779510569395
5.89820000000000010942, 	 298.89943709027721752136, 	 296.72494101416873490962, 	 294.54256669927156053745
5.89930000000000021032, 	 296.43530858000582384193, 	 294.31872593879035093778, 	 292.19992815205569058890
5.90040000000000031122, 	 293.92915238710139647083, 	 291.87140006948692416699, 	 289.81700637226401795488
5.90150000000000041211, 	 291.38143874824936574441, 	 289.38349576658259820761, 	 287.39442397583133015360
5.90260000000000051301, 	 288.79256535117639259624, 	 286.85545232883640665023, 	 284.93270231170009765265
