x [cm], 	 0.40000000000000002220, 	 2.00000000000000000000, 	 3.60000000000000008882
0.00000000000000000000, 	 0.00000000000000000000, 	 0.00000000000000000000, 	 0.00000000000000000000
5.70020000000000059970, 	 3.91050990123673525289, 	 5.77897606336853719711, 	 7.67549633406989340045
5.70130000000000070060, 	 5.02784333449259968063, 	 6.35234438048959759726, 	 7.97728438033520248496
5.70239999999999991331, 	 7.54135247463406077628, 	 8.27847431534962652222, 	 9.41324967010728030914
5.70350000000000001421, 	 11.18351560731369431778, 	 11.44749865128552457350, 	 12.07566972442538499877
5.70460000000000011511, 	 15.58252411452798114055, 	 15.49660457606656827068, 	 15.63035517301411658764
5.70570000000000021600, 	 20.42631963020293284217, 	 20.11479615390282660314, 	 19.80480230278594433457
5.70680000000000031690, 	 25.39014621467205046201, 	 24.87012597834655736051, 	 24.16397980297052683341
5.70790000000000041780, 	 30.17815147759668192862, 	 29.46143123804835894930, 	 28.47954953430167890360
5.70900000000000051870, 	 34.66727346430255352061, 	 33.77739089828224194889, 	 32.61257493719215005967
5.71010000000000061959, 	 38.88570251948852529722, 	 37.85498997813557053860, 	 36.57989091914800638961
5.71119999999999983231, 	 42.96244043871539730617, 	 41.80760814615658205184, 	 40.44840792225323156117
5.71229999999999993321, 	 47.00168259640388868092, 	 45.72102550706248536017, 	 44.27250848919419468075
5.71340000000000003411, 	 51.06241445350678986870, 	 49.65247195492582932275, 	 48.09988225870069555867
5.71450000000000013500, 	 55.16636565129523717133, 	 53.62578331052181113137, 	 51.95491839333279671109
5.71560000000000023590, 	 59.31011290159438686942, 	 57.64019750022603005846, 	 55.84230742530863977890
5.71670000000000033680, 	 63.47700008748242339607, 	 61.67915781041489253766, 	 59.75234185816763954335
5.71780000000000043769, 	 67.64492029973879994031, 	 65.72185616051557133233, 	 63.66960484839813716462
5.71890000000000053859, 	 71.79966022351189280926, 	 69.75313408537793691266, 	 67.57806982769498915786
5.72000000000000063949, 	 75.93132182616454883828, 	 73.76111585488995103788, 	 71.46526383566170181894
5.72109999999999985221, 	 80.03628368255527902875, 	 77.74156009563718328081, 	 75.32728606844810315124
5.72219999999999995310, 	 84.11806060027353737496, 	 81.69882058041993388997, 	 79.16924233545211109231
5.72330000000000005400, 	 88.18559714270978133754, 	 85.64371167785570548858, 	 83.00267300569271355926
5.72440000000000015490, 	 92.24979763200650495492, 	 89.58934035673800622135, 	 86.84116382688074509133
5.72550000000000025580, 	 96.31979769460848217477, 	 93.54675362248394776543, 	 90.69606677449446863193
5.72660000000000035669, 	 100.40046560593916069593, 	 97.52208385825646530520, 	 94.57383600117866251367
5.72770000000000045759, 	 104.49182855856962248708, 	 101.51589892909322543346, 	 98.47547259500359473350
5.72880000000000055849, 	 108.59015716229471593124, 	 105.52439900654911753008, 	 102.39764587334056500367
5.72990000000000065938, 	 112.68985648123063469939, 	 109.54149915923876790202, 	 106.33460031092333508695
5.73099999999999987210, 	 116.78527229841941448285, 	 113.56083190460651621834, 	 110.28001430801691640227
5.73209999999999997300, 	 120.87187170987341744421, 	 117.57709529548492355389, 	 114.22832065275306945296
5.73320000000000007390, 	 124.94668008243557721926, 	 121.58661169013608116529, 	 118.17534626756626892075
5.73430000000000017479, 	 129.00814010033727186055, 	 125.58725585175632488699, 	 122.11837170301525645755
5.73540000000000027569, 	 133.05566214303928518348, 	 129.57802340665151064059, 	 126.05581945726200387980
5.73650000000000037659, 	 137.08910794821193235293, 	 133.55849333745587159683, 	 129.98679136051097771087
5.73760000000000047748, 	 141.10836758321644879288, 	 137.52836250314700805575, 	 133.91062696627551531492
5.73870000000000057838, 	 145.11310022930564400667, 	 141.48714132852114744310, 	 137.82658804888231429686
5.73980000000000067928, 	 149.10264550857161225395, 	 145.43403233153853193471, 	 141.73371017342935829220
5.74089999999999989200, 	 153.07606970653648659209, 	 149.36796141081205746559, 	 145.63080495416258486330
5.74199999999999999289, 	 157.03228916537696591149, 	 153.28770147868098661093, 	 149.51655879071168442351
5.74310000000000009379, 	 160.97020940068594541117, 	 157.19202020595369617695, 	 153.38966315487024871800
5.74420000000000019469, 	 164.88883275586786680833, 	 161.07979763107366011354, 	 157.24892241801839531945
5.74530000000000029559, 	 168.78731003329602344820, 	 164.95008378307898055937, 	 161.09330777435798154329
5.74640000000000039648, 	 172.66493472989191104716, 	 168.80209278406849193743, 	 164.92195177819365881078
5.74750000000000049738, 	 176.52109668245878992821, 	 172.63515127278358818330, 	 168.73409937045181550275
5.74860000000000059828, 	 180.35521917720410556285, 	 176.44862683936179337252, 	 172.52903789783294996596
5.74970000000000069917, 	 184.16670123187023477840, 	 180.24186119876478073820, 	 176.30603072144018028666
5.75079999999999991189, 	 187.95488000909818993023, 	 184.01412529075838619974, 	 180.06427093317142862361
5.75190000000000001279, 	 191.71901789275491978515, 	 187.76460184532351149755, 	 183.80286097760847496829
5.75300000000000011369, 	 195.45831017475677526818, 	 191.49239149437934770503, 	 187.52081535879963780644
5.75410000000000021458, 	 199.17190494762388652816, 	 195.19653354382015209012, 	 191.21707870376465621121
5.75520000000000031548, 	 202.85892625801824351583, 	 198.87603150048866496036, 	 194.89054982997413389967
5.75630000000000041638, 	 206.51849360221399365400, 	 202.52987547057526285244, 	 198.54010413722346584109
5.75740000000000051728, 	 210.14973424992675177236, 	 206.15705717795879081677, 	 202.16460978950246385466
5.75850000000000061817, 	 213.75178798064004581647, 	 209.75657671441624074760, 	 205.76293628085841191933
5.75960000000000071907, 	 217.32380615653625000050, 	 213.32744296628229108137, 	 209.33395695626441579407
5.76069999999999993179, 	 220.86494784079275177646, 	 216.86867034954155997184, 	 212.87654736071459637969
5.76180000000000003268, 	 224.37437534232029179293, 	 220.37927463128124827563, 	 216.38958267399664237018
5.76290000000000013358, 	 227.85125398292069576200, 	 223.85827591844667949772, 	 219.87194721545043307742
5.76400000000000023448, 	 231.29475657156160650629, 	 227.30469993120703975364, 	 223.32252279184709209403
5.76510000000000033538, 	 234.70411717960203645816, 	 230.71752345824708640976, 	 226.73874754866213265814
5.76620000000000043627, 	 238.07902136591749808758, 	 234.09570049334408281538, 	 230.11975716554997006824
5.76730000000000053717, 	 241.41887822138784258641, 	 237.43885757469328723346, 	 233.46564089956709153739
5.76840000000000063807, 	 244.72298482393696872350, 	 240.74635858230249141343, 	 236.77582759112988242123
5.76949999999999985079, 	 247.99041711203250315521, 	 244.01723673535235548115, 	 240.04932911138928375294
5.77059999999999995168, 	 251.22012620066666954699, 	 247.25033274377602765526, 	 243.28492104110856075749
5.77170000000000005258, 	 254.41106774699596826395, 	 250.44445875081277108620, 	 246.48132005418415246822
5.77280000000000015348, 	 257.56229366538281055909, 	 253.59851449116490584856, 	 249.63730836620601394316
5.77390000000000025437, 	 260.67298635834276865353, 	 256.71153707427527024265, 	 252.75179419390769908205
5.77500000000000035527, 	 263.74244830981535869796, 	 259.78269911533340064125, 	 255.82382179941464528383
5.77610000000000045617, 	 266.77007031679596593676, 	 262.81128017849266598205, 	 258.85255284808221176718
5.77720000000000055707, 	 269.75529842879319630811, 	 265.79663365771523331205, 	 261.83723906749554544149
5.77830000000000065796, 	 272.69760901508300321439, 	 268.73815910402578310823, 	 264.77719496178610825154
5.77939999999999987068, 	 275.59649346214530396537, 	 271.63528367888710590705, 	 267.67177782181215661694
5.78049999999999997158, 	 278.45145247299984703204, 	 274.48745414179342105854, 	 270.52037801590824983577
5.78160000000000007248, 	 281.26199810135523193821, 	 277.29413793975220414723, 	 273.32241880499327635334
5.78270000000000017337, 	 284.02766046880333306035, 	 280.05483016612220126262, 	 276.07736258623947378510
5.78380000000000027427, 	 286.74799577386875171214, 	 282.76906244418671576568, 	 278.78471941000429978885
5.78490000000000037517, 	 289.42259242916492212316, 	 285.43640970205495932532, 	 281.44405306787825793435
5.78600000000000047606, 	 292.05107351495598777547, 	 288.05649326164120793692, 	 284.05498481303334301629
5.78710000000000057696, 	 294.63309640495515395742, 	 290.62897974238512688316, 	 286.61718959501791914590
5.78820000000000067786, 	 297.16834406100781507121, 	 293.15356845926362439059, 	 289.13037928767698758747
5.78929999999999989058, 	 299.65651313284479329013, 	 295.62997843950705600946, 	 291.59429332092258846387
5.79039999999999999147, 	 302.09731427405580461709, 	 298.05795224862976056102, 	 294.00870942925774897958
5.79150000000000009237, 	 304.49048689718063087639, 	 300.43727529367748729783, 	 296.37346580507983162533
5.79260000000000019327, 	 306.83581570761805323855, 	 302.76779434181401029491, 	 298.68847680290343760134
5.79370000000000029416, 	 309.13313519703046949871, 	 305.04942024619458607049, 	 300.95373019562936178772
5.79480000000000039506, 	 311.38231825013082243458, 	 307.28211222889120790569, 	 303.16926693398215775233
5.79590000000000049596, 	 313.58325566242353943380, 	 309.46585256210880743311, 	 305.33515371874761967774
5.79700000000000059686, 	 315.73583732060905049366, 	 311.60062406795196920939, 	 307.45146032634488619806
5.79810000000000069775, 	 317.83994275578049837350, 	 313.68639882629418025317, 	 309.51824867701293442224
5.79919999999999991047, 	 319.89544231657686168546, 	 315.72313908826328088253, 	 311.53557371589056401717
5.80030000000000001137, 	 321.90220522712166939527, 	 317.71080606717191585631, 	 313.50349170472867399440
5.80140000000000011227, 	 323.86010916727786934644, 	 319.64937056548467353423, 	 315.42207019876207141351
5.80250000000000021316, 	 325.76904722295751071215, 	 321.53882078655033183168, 	 317.29139539428422267520
5.80360000000000031406, 	 327.62893049909860110347, 	 323.37916535369794246435, 	 319.11157495302154529782
5.80470000000000041496, 	 329.43968682130616798531, 	 325.17043189375527845186, 	 320.88273651810447972821
5.80580000000000051585, 	 331.20125705935652149492, 	 326.91266279149971296647, 	 322.60502331989158619763
5.80690000000000061675, 	 332.91359072607480129591, 	 328.60590992172092228429, 	 324.27858854700491519907
5.80800000000000071765, 	 334.57664205293866643842, 	 330.25022973845733531562, 	 325.90358985819869985789
5.80909999999999993037, 	 336.19036714154418632461, 	 331.84567947784864827554, 	 327.48018487862333358862
5.81020000000000003126, 	 337.75472228887542769371, 	 333.39231467675881503965, 	 329.00852799219126154640
5.81130000000000013216, 	 339.26966326634743609247, 	 334.89018782603329782432, 	 330.48876832905898481840
5.81240000000000023306, 	 340.73514518784560323184, 	 336.33934777621857392660, 	 331.92104860104871022486
5.81350000000000033396, 	 342.15112259420567397683, 	 337.73983947391144511130, 	 333.30550436431008165528
5.81460000000000043485, 	 343.51754946887888308993, 	 339.09170368836657871725, 	 334.64226335248872601369
5.81570000000000053575, 	 344.83437903351176601063, 	 340.39497653529940635053, 	 335.93144466757468080687
5.81680000000000063665, 	 346.10156330705831351224, 	 341.64968876189010416056, 	 337.17315777706812696124
5.81789999999999984936, 	 347.31905251147003355072, 	 342.85586487625397467127, 	 338.36750138573137292042
5.81899999999999995026, 	 348.48679439074965102918, 	 344.01352212753590720240, 	 339.51456201134561752042
5.82010000000000005116, 	 349.60473324718770982145, 	 345.12266910490740201567, 	 340.61441222419188079584
5.82120000000000015206, 	 350.67280927285759162260, 	 346.18330500430994334238, 	 341.66711019062603327257
5.82230000000000025295, 	 351.69095893860338719605, 	 347.19542012919009721372, 	 342.67270025981241587942
5.82340000000000035385, 	 352.65911577458427927922, 	 348.15899665704574772462, 	 343.63121341692408350355
5.82450000000000045475, 	 353.57721048436411592775, 	 349.07400844435289855028, 	 344.54266648318036914134
5.82560000000000055564, 	 354.44517013555281437220, 	 349.94041997784790964943, 	 345.40706110798623740266
5.82670000000000065654, 	 355.26291593744838337443, 	 350.75818145339093234725, 	 346.22437162195905102635
5.82779999999999986926, 	 356.03034894554480160878, 	 351.52721114889931186553, 	 346.99453442194754870798
5.82889999999999997016, 	 356.74736755165287149794, 	 352.24742930608692859096, 	 347.71750157647721835019
5.83000000000000007105, 	 357.41389458057233241561, 	 352.91878104636822399698, 	 348.39324334112376391204
5.83110000000000017195, 	 358.02987134046105666130, 	 353.54122660011324796869, 	 349.02173651033945134259
5.83220000000000027285, 	 358.59524364700422438546, 	 354.11472648310513022807, 	 349.60295235844648686907
5.83330000000000037375, 	 359.10995125343157496900, 	 354.63922998817042753217, 	 350.13684627732453691351
5.83440000000000047464, 	 359.57392273163617346654, 	 355.11466930960494892133, 	 350.62335213565404501423
5.83550000000000057554, 	 359.98707553365710509752, 	 355.54095947731519800072, 	 351.06238227384142192022
5.83660000000000067644, 	 360.34931969844876675779, 	 355.91800252495823997378, 	 351.45383166836649024845
5.83769999999999988916, 	 360.66056281753458279127, 	 356.24569313378088963873, 	 351.79758342251278691037
5.83879999999999999005, 	 360.92071393736790696494, 	 356.52392306944040001326, 	 352.09351298230569682346
5.83990000000000009095, 	 361.12968519854371152178, 	 356.75258309374896725785, 	 352.34148996548719878774
5.84100000000000019185, 	 361.28739138833668675943, 	 356.93156255717667590943, 	 352.54137785916338998504
5.84210000000000029274, 	 361.39374843576433704584, 	 357.06074784780543041052, 	 352.69303276900512855718
5.84320000000000039364, 	 361.44867208063715224853, 	 357.14002109297558718026, 	 352.79630255679035144567
5.84430000000000049454, 	 361.45207758486316151902, 	 357.16926010782628964080, 	 352.85102732115097978749
5.84540000000000059543, 	 361.40388076686639351465, 	 357.14833990270471986150, 	 352.85704145533509290544
5.84650000000000069633, 	 361.30400001104294460674, 	 357.07713531363538095320, 	 352.81417676385768800174
5.84759999999999990905, 	 361.15235855465448366886, 	 356.95552394882156477252, 	 352.72226584337249732926
5.84870000000000000995, 	 360.94888644648972331197, 	 356.78338877382651617154, 	 352.58114511052951911552
5.84980000000000011084, 	 360.69352190152585535543, 	 356.56062000918342391742, 	 352.39065713183276784548
5.85090000000000021174, 	 360.38621199421629626158, 	 356.28711622066578001977, 	 352.15065206060160107882
5.85200000000000031264, 	 360.02691275784928848225, 	 355.96278465792784118094, 	 351.86098823130220125677
5.85310000000000041354, 	 359.61558888963946856165, 	 355.58754107969258484445, 	 351.52153218030196057953
5.85420000000000051443, 	 359.15221333936761993755, 	 355.16130940421663808593, 	 351.13215846120448304646
5.85530000000000061533, 	 358.63676703198240147685, 	 354.68402148924644734507, 	 350.69274957353746913213
5.85640000000000071623, 	 358.06923886484372587802, 	 354.15561721713004317280, 	 350.20319618942789929861
5.85749999999999992895, 	 357.44962598958630906054, 	 353.57604490457060819608, 	 349.66339769634453205072
5.85860000000000002984, 	 356.77793427752192201297, 	 352.94526192190920710345, 	 349.07326293391935223553
5.85970000000000013074, 	 356.05417879585058926750, 	 352.26323530727603383639, 	 348.43271088844414862251
5.86080000000000023164, 	 355.27838424622996171820, 	 351.52994245197464806552, 	 347.74167176500122877769
5.86190000000000033253, 	 354.45058595924251676479, 	 350.74537268933977429697, 	 347.00008938653161294496
5.86300000000000043343, 	 353.57083177701656495628, 	 349.90952991627477786096, 	 346.20792443731806997675
5.86410000000000053433, 	 352.63918393263145389938, 	 349.02243493149796904618, 	 345.36515680719816145938
5.86520000000000063523, 	 351.65571955103916934604, 	 348.08412587216525935219, 	 344.47178553530528688498
5.86629999999999984794, 	 350.62052917981088739907, 	 347.09465624552598228547, 	 343.52782628776373030632
5.86739999999999994884, 	 349.53371406728416559417, 	 346.05409158458002139014, 	 342.53330774929963808972
5.86850000000000004974, 	 348.39538366622218745761, 	 344.96250652238268230576, 	 341.48826879668234823839
5.86960000000000015064, 	 347.20565462322440453136, 	 343.81998372024042964767, 	 340.39275775912386734490
5.87070000000000025153, 	 345.96465164188617791297, 	 342.62661503654862826806, 	 339.24683398121862865082
5.87180000000000035243, 	 344.67250971292588701544, 	 341.38250430597884133022, 	 338.05057095853771897964
5.87290000000000045333, 	 343.32937674887392631717, 	 340.08777059892025818044, 	 336.80405989227097052208
5.87400000000000055422, 	 341.93541571764336595152, 	 338.74255090163268278047, 	 335.50741260888520400840
5.87510000000000065512, 	 340.49080577062875363481, 	 337.34700163267854122751, 	 334.16076330352069589935
5.87619999999999986784, 	 338.99574238333474340834, 	 335.90129901070650930706, 	 332.76426913359648551705
5.87729999999999996874, 	 337.45043684961996177663, 	 334.40563863226151397612, 	 331.31810995352765303323
5.87840000000000006963, 	 335.85511532911743870500, 	 332.86023429266106177238, 	 329.82248681993632999365
5.87950000000000017053, 	 334.21001737917828222635, 	 331.26531623429502815270, 	 328.27762024474128565998
5.88060000000000027143, 	 332.51539523921150021124, 	 329.62113084155976139300, 	 326.68375159061451995512
5.88170000000000037232, 	 330.77151860401539806844, 	 327.92794869900717458222, 	 325.04115579684531667226
5.88280000000000047322, 	 328.97868415196023761382, 	 326.18607562871875416022, 	 323.35015024908511804824
5.88390000000000057412, 	 327.13721579025201435797, 	 324.39584976878961697366, 	 321.61108507395147171337
5.88500000000000067502, 	 325.24745073397224359724, 	 322.55762257788541091941, 	 319.82431981291597367090
5.88609999999999988773, 	 323.30972111117858958096, 	 320.67173686493993045588, 	 317.99020185023465501217
5.88719999999999998863, 	 321.32434396504237383851, 	 318.73851622102432656902, 	 316.10905890611070390150
5.88830000000000008953, 	 319.29162506006184685248, 	 316.75827073099259223454, 	 314.18120754138021766266
5.88940000000000019043, 	 317.21187244167975904929, 	 314.73131340340046335768, 	 312.20697067427437332299
5.89050000000000029132, 	 315.08715304608153928712, 	 312.65792194778026669155, 	 310.18676215608167012761
5.89160000000000039222, 	 312.92086788158570698215, 	 310.53918558882713796265, 	 308.11993800885534255940
5.89270000000000049312, 	 310.70942581057676079581, 	 308.37444265400728227178, 	 306.00654714066445194476
5.89380000000000059401, 	 308.45143074170755426167, 	 306.16297963654182012760, 	 303.84658079909866046364
5.89490000000000069491, 	 306.14695120962079499805, 	 303.90501439724488363936, 	 301.64035408180336617079
5.89599999999999990763, 	 303.79672094530894810305, 	 301.60141863063404343848, 	 299.38878113410612513690
5.89710000000000000853, 	 301.40167416213949991288, 	 299.25328788443493976956, 	 297.09298614699281415596
5.89820000000000010942, 	 298.96266706299280713210, 	 296.86160473575762352993, 	 294.75398680805972162489
5.89930000000000021032, 	 296.48038104115636315328, 	 294.42716061739798760755, 	 292.37266382811594667146
5.90040000000000031122, 	 293.95536956284104235237, 	 291.95059337200399340873, 	 289.94974677083024516833
5.90150000000000041211, 	 291.38809652337488387275, 	 289.43241941438895992178, 	 287.48582143782658704367
5.90260000000000051301, 	 288.77896274550090538469, 	 286.87306342779527312814, 	 284.98135572231666401422
