x [cm], 	 0.25592592592592589007, 	 34.54999999999999715783, 	 68.84407407407405798949
0.00000000000000000000, 	 0.00000000000000000000, 	 0.00000000000000000000, 	 0.00000000000000000000
5.70020000000000059970, 	 -6.62220420399490450336, 	 -3.32710748138446144040, 	 -0.06470733267666292643
5.70130000000000070060, 	 -6.38704673994345384358, 	 -3.18575095831551768910, 	 -0.06357222166627271576
5.70239999999999991331, 	 -6.15884429303709257653, 	 -3.04349672106796775850, 	 -0.06238398896981151714
5.70350000000000001421, 	 -5.93788711941434677044, 	 -2.90046142662440997739, 	 -0.06112317788067330587
5.70460000000000011511, 	 -5.72435998201720863676, 	 -2.75679297833175107613, 	 -0.05977075711295649213
5.70570000000000021600, 	 -5.51733544431993827573, 	 -2.61266624227535615432, 	 -0.05830693815838591809
5.70680000000000031690, 	 -5.31107826901675039721, 	 -2.46827862640923401116, 	 -0.05670790099011990826
5.70790000000000041780, 	 -5.09182999588005547054, 	 -2.32384713046344382192, 	 -0.05493937136317958436
5.70900000000000051870, 	 -4.83773305008497533919, 	 -2.17960601981950841122, 	 -0.05300163043587288042
5.71010000000000061959, 	 -4.52229163783325116555, 	 -2.03580044331621445863, 	 -0.05089079358234922107
5.71119999999999983231, 	 -4.14203448544336261250, 	 -1.89269406510489557327, 	 -0.04859696159059224280
5.71229999999999993321, 	 -3.71910853446876998873, 	 -1.75056942343620791647, 	 -0.04611058818211558052
5.71340000000000003411, 	 -3.26812728000634500347, 	 -1.60971155618652184138, 	 -0.04342524595576170016
5.71450000000000013500, 	 -2.80020180682422026308, 	 -1.47040438650227933692, 	 -0.04053815948139725261
5.71560000000000023590, 	 -2.32734675872100371663, 	 -1.33292920651595148129, 	 -0.03745013262784834679
5.71670000000000033680, 	 -1.85750075782279089331, 	 -1.19756290906897966408, 	 -0.03416544392794003404
5.71780000000000043769, 	 -1.39420456415371885051, 	 -1.06457612445048321881, 	 -0.03069177955140025421
5.71890000000000053859, 	 -0.93900876549627443346, 	 -0.93423158401037154075, 	 -0.02704016212921557527
5.72000000000000063949, 	 -0.49198270506984886907, 	 -0.80678259268342100707, 	 -0.02322518100810317884
5.72109999999999985221, 	 -0.05247999132645617126, 	 -0.68246671261592495306, 	 -0.01926417249346207977
5.72219999999999995310, 	 0.38042763158955200664, 	 -0.56151857877954747256, 	 -0.01517626850097275430
5.72330000000000005400, 	 0.80762339989891496206, 	 -0.44416460918730510388, 	 -0.01098488685152015747
5.72440000000000015490, 	 1.23005631566874407135, 	 -0.33060007585784395578, 	 -0.00671587909579092566
5.72550000000000025580, 	 1.64923574095702396569, 	 -0.22097612455925938479, 	 -0.00239714350291198378
5.72660000000000035669, 	 2.06746849386752273858, 	 -0.11535512875112227671, 	 0.00186067871694851786
5.72770000000000045759, 	 2.48763099067338711023, 	 -0.01363424007533780430, 	 0.00570552244501987705
5.72880000000000055849, 	 2.91259307672158085367, 	 0.08456785436894022345, 	 0.00987848260867197139
5.72990000000000065938, 	 3.34446262607698896474, 	 0.18005901717977271237, 	 0.01404683884258692804
5.73099999999999987210, 	 3.78405174110158215584, 	 0.27417513225936740451, 	 0.01810813593645361347
5.73209999999999997300, 	 4.23098766507996604247, 	 0.36910008116249398702, 	 0.02206986594671240740
5.73320000000000007390, 	 4.68383497055468289716, 	 0.46819162257014712569, 	 0.02587144999288048391
5.73430000000000017479, 	 5.14046845380326544728, 	 0.57547786131240286078, 	 0.02947527622248868190
5.73540000000000027569, 	 5.59858666620641898248, 	 0.69391836660129124770, 	 0.03285288517661100888
5.73650000000000037659, 	 6.05614520209741158396, 	 0.82602895012337074210, 	 0.03597792792005768958
5.73760000000000047748, 	 6.51159360807424469897, 	 0.97576285893739800326, 	 0.03882829683203622984
5.73870000000000057838, 	 6.96381813779446723345, 	 1.14563623015031867958, 	 0.04137486429716548397
5.73980000000000067928, 	 7.41214481360100574392, 	 1.33711122184634834120, 	 0.04359773807879306629
5.74089999999999989200, 	 7.85626891124387949361, 	 1.55045819041447452413, 	 0.04548912827947591137
5.74199999999999999289, 	 8.29616547737308884791, 	 1.78476163402284915271, 	 0.04703997745569191841
5.74310000000000009379, 	 8.73202187980619193297, 	 2.03807596768666243747, 	 0.04824214948449957047
5.74420000000000019469, 	 9.16419560172069047610, 	 2.30768727111970850530, 	 0.04909030367046587212
5.74530000000000029559, 	 9.59318890045536853961, 	 2.59042149017491185603, 	 0.04958343596282298316
5.74640000000000039648, 	 10.01960108487910616759, 	 2.88296875634174298852, 	 0.04971432233361417624
5.74750000000000049738, 	 10.44405419119372524506, 	 3.18218444546329948253, 	 0.04952547145607853751
5.74860000000000059828, 	 10.86711067048334378171, 	 3.48532803719737716008, 	 0.04904119826496410040
5.74970000000000069917, 	 11.28919623184093090629, 	 3.79022145799955056944, 	 0.04825167390553237318
5.75079999999999991189, 	 11.71054350335956506513, 	 4.09532569737670204546, 	 0.04719015013867373237
5.75190000000000001279, 	 12.13116327696982565953, 	 4.39966757563275034926, 	 0.04592881164600763622
5.75300000000000011369, 	 12.55085377772905452787, 	 4.70285030332313791490, 	 0.04454139255925754909
5.75410000000000021458, 	 12.96924237035749172264, 	 5.00500586038316264137, 	 0.04318780016420799978
5.75520000000000031548, 	 13.38584109598211568937, 	 5.30656620311107474208, 	 0.04209649751770323106
5.75630000000000041638, 	 13.80010994348486619288, 	 5.60811254689945570817, 	 0.04147466022132376834
5.75740000000000051728, 	 14.21151617203122974331, 	 5.91023965423735653246, 	 0.04149116207778997395
5.75850000000000061817, 	 14.61958324605626557968, 	 6.21351598534038895849, 	 0.04246860510856129839
5.75960000000000071907, 	 15.02392220491946517313, 	 6.51835978907120594528, 	 0.04462428446576357371
5.76069999999999993179, 	 15.42425714877766829147, 	 6.82497546754678019454, 	 0.04825114554069363793
5.76180000000000003268, 	 15.82044470688712678452, 	 7.13333923897908839251, 	 0.05356181688053283235
5.76290000000000013358, 	 16.21247764215402042964, 	 7.44322117212861833480, 	 0.06072710351019382918
5.76400000000000023448, 	 16.60047987284813331144, 	 7.75422242657649807285, 	 0.06981683241034496168
5.76510000000000033538, 	 16.98467664754447525866, 	 8.06581155467687871408, 	 0.08083919323701042881
5.76620000000000043627, 	 17.36536236760869300610, 	 8.37736781990609813420, 	 0.09368114497612632652
5.76730000000000053717, 	 17.74287754559409791000, 	 8.68827420176573639310, 	 0.10810963463719268363
5.76840000000000063807, 	 18.11758286580400678645, 	 8.99804991820979971351, 	 0.12379193398743876253
5.76949999999999985079, 	 18.48981812386320555675, 	 9.30635508032337632756, 	 0.14032182547015992213
5.77059999999999995168, 	 18.85985355235260385598, 	 9.61299696831180838785, 	 0.15725082280273619539
5.77170000000000005258, 	 19.22778342454523681226, 	 9.91793376405238369387, 	 0.17412294375368220223
5.77280000000000015348, 	 19.59363418887141605751, 	 10.22126249289954813548, 	 0.19051955848248391945
5.77390000000000025437, 	 19.95733415205175020901, 	 10.52319363946233643503, 	 0.20610661811451747027
5.77500000000000035527, 	 20.31864258926719557508, 	 10.82401604267091066447, 	 0.22051499927453813155
5.77610000000000045617, 	 20.67716878320517892575, 	 11.12405698396298525665, 	 0.23354541546424861798
5.77720000000000055707, 	 21.03239358558657556841, 	 11.42364052256126960572, 	 0.24513258769586354635
5.77830000000000065796, 	 21.38371827108506195714, 	 11.72304539936159351043, 	 0.25530575647346637203
5.77939999999999987068, 	 21.73053222330637979098, 	 12.02249125986508460073, 	 0.26417318695200259215
5.78049999999999997158, 	 22.07226583567527455898, 	 12.32207166499877359911, 	 0.27190237882851414630
5.78160000000000007248, 	 22.40842632696188374553, 	 12.62174271146863091531, 	 0.27869620691289426206
5.78270000000000017337, 	 22.73862987375902378062, 	 12.92132395657463916905, 	 0.28476825377741726841
5.78380000000000027427, 	 23.06266270900316328607, 	 13.22045470535123179445, 	 0.29032043363971760108
5.78490000000000037517, 	 23.38049492445712473909, 	 13.51863184072491996801, 	 0.29552521646710910863
5.78600000000000047606, 	 23.69227772136675724823, 	 13.81521598333381994905, 	 0.30051376158901133007
5.78710000000000057696, 	 23.99829381156492758009, 	 14.10941929274355821633, 	 0.30537032816172288152
5.78820000000000067786, 	 24.29891736584541561683, 	 14.40032288772884783157, 	 0.31013257894696455441
5.78929999999999989058, 	 24.59456864833277123239, 	 14.68692393203801316304, 	 0.31479685463175538507
5.79039999999999999147, 	 24.88570814667843222878, 	 14.96815170101444181228, 	 0.31932714051429073043
5.79150000000000009237, 	 25.17283390484423932776, 	 15.24288835290673738143, 	 0.32366624761998813442
5.79260000000000019327, 	 25.45646324073566901802, 	 15.50999885028255320663, 	 0.32774767658232006884
5.79370000000000029416, 	 25.73710145771669743908, 	 15.76836183777444944099, 	 0.33150672875168918363
5.79480000000000039506, 	 26.01520736728999239062, 	 16.01690166933789782888, 	 0.33487717838937280934
5.79590000000000049596, 	 26.29116634673888697193, 	 16.25462010698701220690, 	 0.33786795535190417006
5.79700000000000059686, 	 26.56529386390834801546, 	 16.48062589839507552369, 	 0.34044947426221061626
5.79810000000000069775, 	 26.83778387984827418222, 	 16.69416040000150402989, 	 0.34261011128083967980
5.79919999999999991047, 	 27.10874931556430667001, 	 16.89461763789902093436, 	 0.34436834541077360194
5.80030000000000001137, 	 27.37822719684930916628, 	 17.08155750993936550231, 	 0.34576036010457694703
5.80140000000000011227, 	 27.64634558032811284534, 	 17.25471130490265991853, 	 0.34683186536508170406
5.80250000000000021316, 	 27.91332495761348297947, 	 17.41397946030902588177, 	 0.34763283969204489265
5.80360000000000031406, 	 28.17934681345124658947, 	 17.55942230102363410538, 	 0.34820728564116032455
5.80470000000000041496, 	 28.44452094252682528008, 	 17.69124513132148379668, 	 0.34859529849063936036
5.80580000000000051585, 	 28.70893604380690078415, 	 17.80977936960101359887, 	 0.34882956931494507602
5.80690000000000061675, 	 28.97270320371819352090, 	 17.91546145817010327050, 	 0.34893210419534015365
5.80800000000000071765, 	 29.23595846732294845083, 	 18.00881112984050957948, 	 0.34891516775125991368
5.80909999999999993037, 	 29.49882778003058092509, 	 18.09041035495453186854, 	 0.34877744362410761925
5.81020000000000003126, 	 29.76135265085207493030, 	 18.16088400258756152539, 	 0.34852234646285451536
5.81130000000000013216, 	 30.02354623686401779992, 	 18.22088297156167513435, 	 0.34813955394889473105
5.81240000000000023306, 	 30.28529230830409346709, 	 18.27107027665813987483, 	 0.34761683992020753209
5.81350000000000033396, 	 30.54629093905867875947, 	 18.31211028949500985163, 	 0.34695255459358559369
5.81460000000000043485, 	 30.80604865711534756656, 	 18.34466103098815992212, 	 0.34614899553698719181
5.81570000000000053575, 	 31.06386183491751395991, 	 18.36936911394739979642, 	 0.34521295338774887762
5.81680000000000063665, 	 31.31881438884860102689, 	 18.38686667848004319126, 	 0.34415770002807660743
5.81789999999999984936, 	 31.56977445883246247149, 	 18.39776947972208276383, 	 0.34300320402075751280
5.81899999999999995026, 	 31.81539602579410086491, 	 18.40267494607102349846, 	 0.34177501585165070974
5.82010000000000005116, 	 32.05413270560830341083, 	 18.40215136980231847019, 	 0.34050253069487834701
5.82120000000000015206, 	 32.28427043854674849399, 	 18.39665302186710249543, 	 0.33921644731875350010
5.82230000000000025295, 	 32.50397214106711629711, 	 18.38700367695738790985, 	 0.33794554962085437966
5.82340000000000035385, 	 32.71132137431048647613, 	 18.37357947624239074003, 	 0.33671604239130131786
5.82450000000000045475, 	 32.90437314724293571544, 	 18.35677154463453319977, 	 0.33554745647215589166
5.82560000000000055564, 	 33.08121059441389633093, 	 18.33704628037004980001, 	 0.33445077004466816639
5.82670000000000065654, 	 33.24000354649982824640, 	 18.31482393533694619236, 	 0.33342874467413374795
5.82779999999999986926, 	 33.37906719371544284058, 	 18.29048140710835212985, 	 0.33247631140014799467
5.82889999999999997016, 	 33.49691370668939072175, 	 18.26435779378008206209, 	 0.33158114178405323491
5.83000000000000007105, 	 33.59229391560113953119, 	 18.23675869366130086746, 	 0.33072482125134372577
5.83110000000000017195, 	 33.66422701829985442146, 	 18.20795932067031586143, 	 0.32988469548531546005
5.83220000000000027285, 	 33.71201861456386694726, 	 18.17820708294884823886, 	 0.32903620956624873850
5.83330000000000037375, 	 33.73526574935625177432, 	 18.14772292371089434937, 	 0.32815598657665118187
5.83440000000000047464, 	 33.73387137770937727055, 	 18.11669997756043670734, 	 0.32722468429175699534
5.83550000000000057554, 	 33.70784151014655094514, 	 18.08530193401339758452, 	 0.32622508220080354002
5.83660000000000067644, 	 33.65818630276309875171, 	 18.05366587338962247600, 	 0.32514656996926327714
5.83769999999999988916, 	 33.58726731227233130994, 	 18.02189921915119086293, 	 0.32398835182014684708
5.83879999999999999005, 	 33.49454276095779903244, 	 17.99006950800454518458, 	 0.32275897298211830844
5.83990000000000009095, 	 33.38028341192144665683, 	 17.95819199515559105862, 	 0.32147581273505637656
5.84100000000000019185, 	 33.24549064209227111633, 	 17.92622039781176468409, 	 0.32016316629275354266
5.84210000000000029274, 	 33.09134557587830016701, 	 17.89403636475605807732, 	 0.31884944831394357312
5.84320000000000039364, 	 32.91895039773429232355, 	 17.86145105373492114609, 	 0.31756664592216266030
5.84430000000000049454, 	 32.72941076874634092064, 	 17.82819110474478208062, 	 0.31634668887641542723
5.84540000000000059543, 	 32.52384695743794651435, 	 17.79389238656326455157, 	 0.31521636752554116345
5.84650000000000069633, 	 32.30338106104670004015, 	 17.75809758597473830832, 	 0.31419809556611116852
5.84759999999999990905, 	 32.06912059367458311954, 	 17.72025774023356703424, 	 0.31331076873209573463
5.84870000000000000995, 	 31.82214417586005694716, 	 17.67973793010158445327, 	 0.31256875716385390529
5.84980000000000011084, 	 31.56347909988056699149, 	 17.63582708075351845878, 	 0.31198048079981688385
5.85090000000000021174, 	 31.29419126284119201387, 	 17.58775200868276655797, 	 0.31154765781213816789
5.85200000000000031264, 	 31.01524407153205231680, 	 17.53469527854404574896, 	 0.31126545155524409925
5.85310000000000041354, 	 30.72745024320331452827, 	 17.47581617961752442625, 	 0.31112329036993097153
5.85420000000000051443, 	 30.43158068819615991174, 	 17.41027397839273405111, 	 0.31110563690714354568
5.85530000000000061533, 	 30.12839757032904941525, 	 17.33725257053501067617, 	 0.31120027193831062418
5.85640000000000071623, 	 29.81866542720159785063, 	 17.25598551808187508527, 	 0.31137680966725039822
5.85749999999999992895, 	 29.50313249778314528271, 	 17.16578012290791832584, 	 0.31161230570193038103
5.85860000000000002984, 	 29.18252098053793019972, 	 17.06603881020659230217, 	 0.31189336703686093566
5.85970000000000013074, 	 28.85754871163471335649, 	 16.95627599038382271601, 	 0.31220049898329804705
5.86080000000000023164, 	 28.52889618994363019056, 	 16.83612894856024411183, 	 0.31251254668670552794
5.86190000000000033253, 	 28.19720061538093602849, 	 16.70536211947530347288, 	 0.31280878633543895972
5.86300000000000043343, 	 27.86305330004865510318, 	 16.56386505891080318520, 	 0.31306962570701585280
5.86410000000000053433, 	 27.52700399883218906893, 	 16.41164520092797118878, 	 0.31327439025710390741
5.86520000000000063523, 	 27.18956722214731058784, 	 16.24881690521470289923, 	 0.31339836985285524085
5.86629999999999984794, 	 26.85122377971705986965, 	 16.07558833660394626008, 	 0.31341438913186259185
5.86739999999999994884, 	 26.51241471958572049061, 	 15.89224746963828494017, 	 0.31329180838812442644
5.86850000000000004974, 	 26.17354527347963610850, 	 15.69914810646529090832, 	 0.31299205815401948128
5.86960000000000015064, 	 25.83498212955098338739, 	 15.49669639091967709987, 	 0.31246514020546878321
5.87070000000000025153, 	 25.49704345192720467139, 	 15.28533801884378995339, 	 0.31166475685966177345
5.87180000000000035243, 	 25.16000725850216213075, 	 15.06554621538922766888, 	 0.31054718206383147283
5.87290000000000045333, 	 24.82411668442016861036, 	 14.83781053410481298727, 	 0.30905926868414945741
5.87400000000000055422, 	 24.48957799608790963930, 	 14.60262658523586587478, 	 0.30714278520088744706
5.87510000000000065512, 	 24.15656094745614623776, 	 14.36048689562340108239, 	 0.30474143639865375333
5.87619999999999986784, 	 23.82519782577670852675, 	 14.11187320690735091944, 	 0.30179968176485433284
5.87729999999999996874, 	 23.49557704808941593910, 	 13.85725057366583357066, 	 0.29827036808531653955
5.87840000000000006963, 	 23.16773785849864353281, 	 13.59706356646893432583, 	 0.29411474324332209651
5.87950000000000017053, 	 22.84167275223730797507, 	 13.33173469573029912283, 	 0.28930320791025615490
5.88060000000000027143, 	 22.51733491198381997833, 	 13.06166489548843578916, 	 0.28381699279732991448
5.88170000000000037232, 	 22.19464443131006703425, 	 12.78723563606049218322, 	 0.27764509181048996345
5.88280000000000047322, 	 21.87349183483550163487, 	 12.50881206950567836600, 	 0.27079929844479488921
5.88390000000000057412, 	 21.55374131956240546515, 	 12.22674659575740641060, 	 0.26331288442602024391
5.88500000000000067502, 	 21.23523517166421825664, 	 11.94138233640456192575, 	 0.25521366918270965707
5.88609999999999988773, 	 20.91779888129266140595, 	 11.65305616277562172911, 	 0.24654546324584647454
5.88719999999999998863, 	 20.60124513748919383715, 	 11.36210101071335643041, 	 0.23731066942845460699
5.88830000000000008953, 	 20.28537966549921378601, 	 11.06884710401474691821, 	 0.22751881873867019213
5.88940000000000019043, 	 19.97000757415826299734, 	 10.77362199001229647877, 	 0.21735455185463631311
5.89050000000000029132, 	 19.65493750190085719964, 	 10.47675027687806803556, 	 0.20694341862778303787
5.89160000000000039222, 	 19.33998321686908639094, 	 10.17855435619144266468, 	 0.19637010783395128510
5.89270000000000049312, 	 19.02496360690424737072, 	 9.87935653160375792936, 	 0.18571142318990235820
5.89380000000000059401, 	 18.70970170677910360268, 	 9.57948167511939807639, 	 0.17504333664494711731
5.89490000000000069491, 	 18.39402291739535755255, 	 9.27925778763214914591, 	 0.16444455872726176926
5.89599999999999990763, 	 18.07775103005891992325, 	 8.97902303986951544346, 	 0.15399511065347701311
5.89710000000000000853, 	 17.76070680083459052412, 	 8.67913689912644947810, 	 0.14376317785440889674
5.89820000000000010942, 	 17.44270608887897111572, 	 8.37995171400866389888, 	 0.13380229660220177568
5.89930000000000021032, 	 17.12355367971803232763, 	 8.08184257211437717672, 	 0.12416215176328991576
5.90040000000000031122, 	 16.80304174063073219259, 	 7.78520505717732014261, 	 0.11488762713921837899
5.90150000000000041211, 	 16.48094525723631420533, 	 7.49045411016066786658, 	 0.10601611128941820783
5.90260000000000051301, 	 16.15702498978608758762, 	 7.19802314877806548310, 	 0.09757674768984163360
5.90370000000000061391, 	 15.83102562497965060118, 	 6.90836439863542928208, 	 0.08959092479785935037
5.90480000000000071481, 	 15.50267037162670469286, 	 6.62194778359739455453, 	 0.08207308281165345831
5.90589999999999992752, 	 15.17166250499840884913, 	 6.33925875934741078765, 	 0.07503150716143590360
5.90700000000000002842, 	 14.83771893257882013017, 	 6.06079484725807660084, 	 0.06846909076703475150
5.90810000000000012932, 	 14.50055122007868568801, 	 5.78706095179750068525, 	 0.06238409234622931815
5.90920000000000023022, 	 14.15987089850051816597, 	 5.51856345208493781485, 	 0.05677088267893077439
5.91030000000000033111, 	 13.81538630496024921968, 	 5.25580313963437095737, 	 0.05162064594506577536
