x [cm], 	 0.40000000000000002220, 	 2.00000000000000000000, 	 3.60000000000000008882
0.00000000000000000000, 	 0.00000000000000000000, 	 0.00000000000000000000, 	 0.00000000000000000000
5.70020000000000059970, 	 4.38533528964650010096, 	 6.61058409463387963712, 	 8.86861707915535291136
5.70130000000000070060, 	 5.69281919623608434478, 	 7.27759324643212845984, 	 9.20285787571356905801
5.70239999999999991331, 	 8.60997963906544327983, 	 9.52021833392321603640, 	 10.87211047151517462339
5.70350000000000001421, 	 12.76457921013755125728, 	 13.16635078578084616652, 	 13.93608814126445949455
5.70460000000000011511, 	 17.69595024862513810149, 	 17.74537669385167149017, 	 17.96477768755942250323
5.70570000000000021600, 	 22.99852760490027492324, 	 22.84034217038044189962, 	 22.59965903776308593365
5.70680000000000031690, 	 28.32123206127208447924, 	 27.95935174535488343395, 	 27.31941906465056391085
5.70790000000000041780, 	 33.35787751288246738568, 	 32.80607877298950114664, 	 31.91342095671933876133
5.70900000000000051870, 	 38.04192286919976595527, 	 37.31542489139779661400, 	 36.26559036367753208197
5.71010000000000061959, 	 42.50270287520650214219, 	 41.59095703321153791876, 	 40.42030471320951789949
5.71119999999999983231, 	 46.85608853948932051026, 	 45.78703128329590299472, 	 44.52058405556442011175
5.71229999999999993321, 	 51.22764130523355419200, 	 50.00711569865416805669, 	 48.62913680219150336370
5.71340000000000003411, 	 55.66133459513672931962, 	 54.28988962220446978790, 	 52.77909809185693745803
5.71450000000000013500, 	 60.15266656070388506805, 	 58.63241384398956768109, 	 56.97465406990644254392
5.71560000000000023590, 	 64.67615455714158656519, 	 63.01038106293005824909, 	 61.20018326244908735134
5.71670000000000033680, 	 69.20368010562616234438, 	 67.39498348725965115591, 	 65.43243223414182807574
5.71780000000000043769, 	 73.71331677953681094095, 	 71.76129715139241227462, 	 69.64906450139466187466
5.71890000000000053859, 	 78.18693285199580600420, 	 76.08872672005902870751, 	 73.83327359795433153522
5.72000000000000063949, 	 82.62302764682682720832, 	 80.37743190961641914782, 	 77.98301136699997471169
5.72109999999999985221, 	 87.03184032480899645634, 	 84.63854610984563464626, 	 82.10891076289017576073
5.72219999999999995310, 	 91.42939368444582726170, 	 88.89120046439289524187, 	 86.23105908074712999678
5.72330000000000005400, 	 95.83224809505696839551, 	 93.15548178283654578991, 	 90.37029243948691714650
5.72440000000000015490, 	 100.25173724447193990272, 	 97.44538244898178902531, 	 94.54108887962331664312
5.72550000000000025580, 	 104.69106057825638345093, 	 101.76542587251564953021, 	 98.74855778579242837623
5.72660000000000035669, 	 109.14612132558544033145, 	 106.11163543357429261960, 	 102.98949895405169741025
5.72770000000000045759, 	 113.60878835337422287921, 	 110.47519117572294078400, 	 107.25579348421692316151
5.72880000000000055849, 	 118.07049310521114193762, 	 114.84643985307343427849, 	 111.53806809273906708313
5.72990000000000065938, 	 122.52464009881128959023, 	 119.21762508230193589043, 	 115.82827236707190365905
5.73099999999999987210, 	 126.96738945658532315974, 	 123.58387210498715091944, 	 120.12077234338318021400
5.73209999999999997300, 	 131.39720493902493103633, 	 127.94283126419995255674, 	 124.41225372819097572119
5.73320000000000007390, 	 135.81386156734683368086, 	 132.29369534660222029743, 	 128.70099204288862893009
5.73430000000000017479, 	 140.21748891154575744622, 	 136.63619509211275726557, 	 132.98599606970427089436
5.73540000000000027569, 	 144.60794726966298640036, 	 140.96990394691573555974, 	 137.26634417425239576005
5.73650000000000037659, 	 148.98458836990400300238, 	 145.29393522474435940239, 	 141.54083877667900992492
5.73760000000000047748, 	 153.34631102332028262936, 	 149.60696136393505639717, 	 145.80795922361147631818
5.73870000000000057838, 	 157.69177327879637573460, 	 153.90741874640070818714, 	 150.06600770395255040057
5.73980000000000067928, 	 162.01962798093538253852, 	 158.19375258563039210458, 	 154.31331319988004224797
5.74089999999999989200, 	 166.32869165453891469042, 	 162.46460162398824422780, 	 158.54840166074896501414
5.74199999999999999289, 	 170.61801865828857671659, 	 166.71888546284543508591, 	 162.77008525983663389525
5.74310000000000009379, 	 174.88688918535277139199, 	 170.95579601557065529960, 	 166.97746009303747882768
5.74420000000000019469, 	 179.13473721519812897895, 	 175.17471632054753172270, 	 171.16982607770589197571
5.74530000000000029559, 	 183.36104889938934547899, 	 179.37509998548512157868, 	 175.34656162420421310344
5.74640000000000039648, 	 187.56526301178891458221, 	 183.55634967742767571508, 	 179.50699483671380107808
5.74750000000000049738, 	 191.74670031150287741184, 	 187.71772834318420564159, 	 183.65030782932757347226
5.74860000000000059828, 	 195.90453642993867333644, 	 191.85832181867087342653, 	 187.77549377411943964944
5.74970000000000069917, 	 200.03781666319395071696, 	 195.97705161798472772716, 	 191.88136533591543297916
5.75079999999999991189, 	 204.14549774350462030270, 	 200.07272084220838337387, 	 195.96659768145676139284
5.75190000000000001279, 	 208.22649709322510602760, 	 204.14407094596597858072, 	 200.02978461705842505580
5.75300000000000011369, 	 212.27973291725908211447, 	 208.18982932278780140223, 	 204.06948701579798921557
5.75410000000000021458, 	 216.30414605538072692070, 	 212.20873723604688620981, 	 208.08426413701366186615
5.75520000000000031548, 	 220.29870466281258245544, 	 216.19955863547096441835, 	 212.07268706185695350541
5.75630000000000041638, 	 224.26239769845778937452, 	 220.16107580745719474180, 	 216.03333877905413373810
5.75740000000000051728, 	 228.19422435660590053885, 	 224.09207956128031469234, 	 219.96480777142963347615
5.75850000000000061817, 	 232.09318507846299439734, 	 227.99136034213688617456, 	 223.86568133061706475928
5.75960000000000071907, 	 235.95827735259078394847, 	 231.85770427707493013258, 	 227.73454301529889676203
5.76069999999999993179, 	 239.78849705857930985076, 	 235.68989529117436632077, 	 231.56997560518698264787
5.76180000000000003268, 	 243.58284386323231274218, 	 239.48672175179115129140, 	 235.37056825365891654656
5.76290000000000013358, 	 247.34032818545384202480, 	 243.24698497599771940259, 	 239.13492555099279002206
5.76400000000000023448, 	 251.05997763367969355386, 	 246.96950732822355689677, 	 242.86167650061307199394
5.76510000000000033538, 	 254.74084188535096018313, 	 250.65313875354553374564, 	 246.54948231825235893666
5.76620000000000043627, 	 258.38199600273185296828, 	 254.29676167904011663268, 	 250.19704287936855280350
5.76730000000000053717, 	 261.98254276971306353516, 	 257.89929485744215753584, 	 253.80310221795176062187
5.76840000000000063807, 	 265.54161474757364658217, 	 261.45969687366630296310, 	 257.36645365887375191960
5.76949999999999985079, 	 269.05837655523248486134, 	 264.97696985544718017991, 	 260.88594505469177420309
5.77059999999999995168, 	 272.53202754258563800249, 	 268.45016354560783611305, 	 264.36048420903870237453
5.77170000000000005258, 	 275.96180468151231934826, 	 271.87837953743309071797, 	 267.78904432895325271602
5.77280000000000015348, 	 279.34698540439723046802, 	 275.26077535800101259156, 	 271.17066911418760355446
5.77390000000000025437, 	 282.68688968075508682887, 	 278.59656731462212064798, 	 274.50447606174645898136
5.77500000000000035527, 	 285.98088166234725804316, 	 281.88503373315887756689, 	 277.78966240097508944018
5.77610000000000045617, 	 289.22854583241883119626, 	 285.12546561280635160074, 	 281.02300441006468645355
5.77720000000000055707, 	 292.43025536490256399702, 	 288.31730184755627988125, 	 284.20466259221922200595
5.77830000000000065796, 	 295.58585968897966722579, 	 291.46100445905187825701, 	 287.33596135140311389478
5.77939999999999987068, 	 298.69498372648087070047, 	 294.55651532993795171933, 	 290.41715216717369685284
5.78049999999999997158, 	 301.75689534706526728769, 	 297.60324132019320586551, 	 293.44783113987318756699
5.78160000000000007248, 	 304.77071918021698593293, 	 300.60035118311242285927, 	 296.42729674036047526897
5.78270000000000017337, 	 307.73566456935714086285, 	 303.54706361415230730927, 	 299.35485396119725010067
5.78380000000000027427, 	 310.65115530113683917079, 	 306.44282178785965697898, 	 302.23001320297089478117
5.78490000000000037517, 	 313.51684278390519011737, 	 309.28731421188922467991, 	 305.05249945220225527009
5.78600000000000047606, 	 316.33251274359150784221, 	 312.08038401293259767044, 	 307.82219825176161975833
5.78710000000000057696, 	 319.09801576876151329998, 	 314.82196630578863505434, 	 310.53911408414069228456
5.78820000000000067786, 	 321.81322625930624781176, 	 317.51203864680223887262, 	 313.20331340716472823260
5.78929999999999989058, 	 324.47801418727959799071, 	 320.15058488250838308886, 	 315.81488583260852465173
5.79039999999999999147, 	 327.09224160411145021499, 	 322.73759119406554418674, 	 318.37394309310184326023
5.79150000000000009237, 	 329.65578272179533314556, 	 325.27306893470625936970, 	 320.88064096081302523089
5.79260000000000019327, 	 332.16854658968696867305, 	 327.75707784352368889813, 	 323.33519574274839669670
5.79370000000000029416, 	 334.63048255502076244738, 	 330.18972803486997236178, 	 325.73787808653298725403
5.79480000000000039506, 	 337.04156525982631364968, 	 332.57115906291375040382, 	 328.08898659675566022997
5.79590000000000049596, 	 339.40177055917246207173, 	 334.90151003633155823991, 	 330.38881609335436451147
5.79700000000000059686, 	 341.71105668418118739282, 	 337.18089689842895495531, 	 332.63763500162497166457
5.79810000000000069775, 	 343.96935822823741091270, 	 339.40940488764852034365, 	 334.83567804476768969835
5.79919999999999991047, 	 346.17659169286815767919, 	 341.58709436943473747306, 	 336.98315169647958100541
5.80030000000000001137, 	 348.33266626883118988189, 	 343.71401281768163471497, 	 339.08024545409546135488
5.80140000000000011227, 	 350.43749349590933661602, 	 345.79020579281547043138, 	 341.12714231584044455303
5.80250000000000021316, 	 352.49099236365509568714, 	 347.81572296879988925866, 	 343.12402473596256413657
5.80360000000000031406, 	 354.49308959101909977107, 	 349.79061873269387206165, 	 345.07107541232630865125
5.80470000000000041496, 	 356.44371669329854057651, 	 351.71494897716218019923, 	 346.96847420115949489627
5.80580000000000051585, 	 358.34280583233999095683, 	 353.58876623684051310192, 	 348.81639308582447256413
5.80690000000000061675, 	 360.19028594713881830103, 	 355.41211488610355218043, 	 350.61499089652949123774
5.80800000000000071765, 	 361.98607993124937820539, 	 357.18502737852799100438, 	 352.36440888657062942002
5.80909999999999993037, 	 363.73010302600567911213, 	 358.90752184902379440246, 	 354.06476764404607138204
5.81020000000000003126, 	 365.42226222709354033213, 	 360.57960093574394022653, 	 355.71616528333680662399
5.81130000000000013216, 	 367.06245617952117754612, 	 362.20125112797092015171, 	 357.31867596440486067877
5.81240000000000023306, 	 368.65057476152782101053, 	 363.77244186211947862830, 	 358.87234859746439497030
5.81350000000000033396, 	 370.18649928526474468526, 	 365.29312592209629428908, 	 360.37720776970257929861
5.81460000000000043485, 	 371.67010383862577782565, 	 366.76324101390781606824, 	 361.83325519598861319537
5.81570000000000053575, 	 373.10125597064109115308, 	 368.18271013012036974033, 	 363.24046910834363188769
5.81680000000000063665, 	 374.47981526593014223181, 	 369.55143940797984214441, 	 364.59880152928860752581
5.81789999999999984936, 	 375.80563182115537301797, 	 370.86931677778505900278, 	 365.90817811685423066592
5.81899999999999995026, 	 377.07854758836617747875, 	 372.13621422166721686153, 	 367.16850155038076763958
5.82010000000000005116, 	 378.29839925152128898844, 	 373.35199114232824513238, 	 368.37965463861559101133
5.82120000000000015206, 	 379.46502001255061031770, 	 374.51649643798725719535, 	 369.54150233390430457803
5.82230000000000025295, 	 380.57823979363161015499, 	 375.62956816286498451518, 	 370.65388886788343825174
5.82340000000000035385, 	 381.63787333728083694950, 	 376.69101321515006475238, 	 371.71660704771858263484
5.82450000000000045475, 	 382.64371502261735713546, 	 377.70061579154008768455, 	 372.72944145931637649483
5.82560000000000055564, 	 383.59558013412487298410, 	 378.65818576318343957610, 	 373.69220333344151185884
5.82670000000000065654, 	 384.49331089190553711887, 	 379.56355678937438824505, 	 374.60471578989313456987
5.82779999999999986926, 	 385.33675752328031194338, 	 380.41656481273548706667, 	 375.46679486188185137507
5.82889999999999997016, 	 386.12576043398792080552, 	 381.21702822212989758555, 	 376.27823146548706745307
5.83000000000000007105, 	 386.86014061330888580414, 	 381.96473673417716554468, 	 377.03878079432661252213
5.83110000000000017195, 	 387.53969902288696403048, 	 382.65945044312593381619, 	 377.74816152103340982649
5.83220000000000027285, 	 388.16422252763271671938, 	 383.30090663663912664560, 	 378.40606286794866264245
5.83330000000000037375, 	 388.73349255637901933369, 	 383.88883012399213612298, 	 379.01215546182265825337
5.83440000000000047464, 	 389.24729301354790322875, 	 384.42294299987094063908, 	 379.56610186977513876627
5.83550000000000057554, 	 389.70541545340546463194, 	 384.90297147460370297267, 	 380.06756450471931430002
5.83660000000000067644, 	 390.10766137258229946383, 	 385.32864944746881974424, 	 380.51621035725986530451
5.83769999999999988916, 	 390.45384236781649178738, 	 385.69971944636336047552, 	 380.91171283976251515924
5.83879999999999999005, 	 390.74377905813679490166, 	 386.01593190129864296978, 	 381.25375170944761293867
5.83990000000000009095, 	 390.97729982509673618551, 	 386.27704408189583773492, 	 381.54201257064437413646
5.84100000000000019185, 	 391.15424016215729352552, 	 386.48281958375730482658, 	 381.77618668470546481331
5.84210000000000029274, 	 391.27444268448192588039, 	 386.63302845829235820929, 	 381.95597127232957745946
5.84320000000000039364, 	 391.33775763558816151999, 	 386.72744792047217288200, 	 382.08107043241818701063
5.84430000000000049454, 	 391.34404376830201499615, 	 386.76586354616864582567, 	 382.15119664029964496876
5.84540000000000059543, 	 391.29316948881074722522, 	 386.74807085131476469542, 	 382.16607273003836553471
5.84650000000000069633, 	 391.18501408134812891149, 	 386.67387688475304230451, 	 382.12543339376185258516
5.84759999999999990905, 	 391.01946729796202362195, 	 386.54309959161338383637, 	 382.02902545849411808376
5.84870000000000000995, 	 390.79643340625239034125, 	 386.35557507765184936943, 	 381.87661753024485733476
5.84980000000000011084, 	 390.51583094272564267158, 	 386.11115368774420630871, 	 381.66799044190742051796
5.85090000000000021174, 	 390.17758870880300037243, 	 385.80969781901194437523, 	 381.40294018910924478405
5.85200000000000031264, 	 389.78164790633508118844, 	 385.45108481501915775880, 	 381.08128076157566965776
5.85310000000000041354, 	 389.32796429620628941848, 	 385.03520932927904141252, 	 380.70284614277989021502
5.85420000000000051443, 	 388.81650919850807213152, 	 384.56198454499701711029, 	 380.26749161574855406798
5.85530000000000061533, 	 388.24726975242896287455, 	 384.03134268343012536207, 	 379.77509459073758080194
5.85640000000000071623, 	 387.62024896458751754835, 	 383.44323529461365751558, 	 379.22555524142632066287
5.85749999999999992895, 	 386.93546588377404304993, 	 382.79763372693361134225, 	 378.61879744157619143152
5.85860000000000002984, 	 386.19295643087122016368, 	 382.09453056331136622248, 	 377.95477106225268926210
5.85970000000000013074, 	 385.39277527423757874203, 	 381.33394227662427056202, 	 377.23345523346660002062
5.86080000000000023164, 	 384.53499750723784700313, 	 380.51591122868478578312, 	 376.45486010613393546009
5.86190000000000033253, 	 383.61971854793267766581, 	 379.64050533121081798527, 	 375.61902592220513952270
5.86300000000000043343, 	 382.64705201967080938630, 	 378.70781521556335746936, 	 374.72601948736081567404
5.86410000000000053433, 	 381.61712648902738465040, 	 377.71795008033944895942, 	 373.77592952502772050138
5.86520000000000063523, 	 380.53008263264229071865, 	 376.67103419988023915721, 	 372.76886311868537404735
5.86629999999999984794, 	 379.38607234440212323534, 	 375.56720596398434963703, 	 371.70494515010528857601
5.86739999999999994884, 	 378.18526016843725301442, 	 374.40661966705107488451, 	 370.58432035613139987618
5.86850000000000004974, 	 376.92782587311802444674, 	 373.18944864072767586549, 	 369.40715671866803404555
5.86960000000000015064, 	 375.61396710258742359656, 	 371.91588862244088886655, 	 368.17364925636121597563
5.87070000000000025153, 	 374.24390142113247748057, 	 370.58616042071150786796, 	 366.88402296677890035426
5.87180000000000035243, 	 372.81786693064515247897, 	 369.20051065266648038232, 	 365.53853332121462926807
5.87290000000000045333, 	 371.33612112376277991643, 	 367.75921041219908147468, 	 364.13746487785351746425
5.87400000000000055422, 	 369.79893888927500711361, 	 366.26255282668279278369, 	 362.68112860495745053413
5.87510000000000065512, 	 368.20661088740092736771, 	 364.71085148116259233575, 	 361.16986124284363768311
5.87619999999999986784, 	 366.55944558173382574751, 	 363.10444452895916356283, 	 359.60403340509134295644
5.87729999999999996874, 	 364.85777823475712011714, 	 361.44370667318179357608, 	 357.98406228136042273036
5.87840000000000006963, 	 363.10197368691012798081, 	 359.72904858008371320466, 	 356.31040205055012393132
5.87950000000000017053, 	 361.29241024316610264577, 	 357.96089374791324644320, 	 354.58351429601026438831
5.88060000000000027143, 	 359.42945760541994104642, 	 356.13965226090942906012, 	 352.80384335723636013427
5.88170000000000037232, 	 357.51346820839285101101, 	 354.26571250241534016823, 	 350.97181271502500976567
5.88280000000000047322, 	 355.54478662695061075283, 	 352.33945368811919252039, 	 349.08784042649136836189
5.88390000000000057412, 	 353.52376776345727193984, 	 350.36126759269694730392, 	 347.15236115864752264315
5.88500000000000067502, 	 351.45079169736277435732, 	 348.33157579991507191153, 	 345.16584249315030774596
5.88609999999999988773, 	 349.32626855205455740361, 	 346.25083527637576708003, 	 343.12878959314565463501
5.88719999999999998863, 	 347.15063383340623204276, 	 344.11953293674429232851, 	 341.04173930992766372583
5.88830000000000008953, 	 344.92433892737074074830, 	 341.93817451159594611454, 	 338.90524882443577325830
5.88940000000000019043, 	 342.64800525723882174134, 	 339.70724796355847274754, 	 336.71993631750427766747
5.89050000000000029132, 	 340.32666524697759768969, 	 337.42754463914945972647, 	 334.48580619937251867668
5.89160000000000039222, 	 337.95776229401826640242, 	 335.09936169195066213433, 	 332.20259124748451995401
5.89270000000000049312, 	 335.53934960302251511166, 	 332.72181930984203290791, 	 329.87049648387176148390
5.89380000000000059401, 	 333.07126963123715768234, 	 330.29506690654466183332, 	 327.48993738989889834556
5.89490000000000069491, 	 330.55432672912706948409, 	 327.82002543338973055143, 	 325.06184276606558114509
5.89599999999999990763, 	 327.98951400863035132716, 	 325.29788582768935611966, 	 322.58746781519215574008
5.89710000000000000853, 	 325.37776061315815923081, 	 322.72974605552838056610, 	 320.06798731873738006470
5.89820000000000010942, 	 322.71980597105471133546, 	 320.11647485771493393258, 	 317.50436838606333367352
5.89930000000000021032, 	 320.01621235334789616900, 	 317.45871947099260523828, 	 314.89735407326730864952
5.90040000000000031122, 	 317.26742361662843450176, 	 314.75696816852905612905, 	 312.24750488999791286915
5.90150000000000041211, 	 314.47382197730973985017, 	 312.01161895866897566520, 	 309.55526987645657754911
5.90260000000000051301, 	 311.63579479229196067536, 	 309.22307483456671661770, 	 306.82110386510197486132
