x [cm], 	 0.69214285714285717077, 	 48.45000000000000284217, 	 96.20785714285715073402
0.00000000000000000000, 	 0.00000000000000000000, 	 0.00000000000000000000, 	 0.00000000000000000000
5.70020000000000059970, 	 0.30430139468946759695, 	 1.90644981852226869101, 	 3.54007558126338706117
5.70130000000000070060, 	 0.32651687565564208038, 	 1.91137510085832507123, 	 3.52719992008728944199
5.70239999999999991331, 	 0.34909928748790669539, 	 1.91651327938693238906, 	 3.51449140338715748655
5.70350000000000001421, 	 0.37203004387624727389, 	 1.92186446366697283317, 	 3.50195075503180142107
5.70460000000000011511, 	 0.39529070453858167200, 	 1.92742871517945446591, 	 3.48957869997145930796
5.70570000000000021600, 	 0.41886276562926838540, 	 1.93320597440363428632, 	 3.47737596421750927433
5.70680000000000031690, 	 0.44272766512305966602, 	 1.93919600850635309719, 	 3.46534325355416905623
5.70790000000000041780, 	 0.46686649394014212433, 	 1.94539835436607355668, 	 3.45348126190127535651
5.70900000000000051870, 	 0.49126002914492294948, 	 1.95181226437582311384, 	 3.44179065689741792156
5.71010000000000061959, 	 0.51588884027347714500, 	 1.95843667003638777224, 	 3.43027204714506828154
5.71119999999999983231, 	 0.54073328502916528926, 	 1.96527013866559263633, 	 3.41892603135490569244
5.71229999999999993321, 	 0.56577352536837799413, 	 1.97231083015385366686, 	 3.40775316440928577322
5.71340000000000003411, 	 0.59098961223788382124, 	 1.97955645728164864039, 	 3.39675391915481483807
5.71450000000000013500, 	 0.61636174959653511340, 	 1.98700424305412992609, 	 3.38592865422484523563
5.71560000000000023590, 	 0.64187092449009275352, 	 1.99465088565017678590, 	 3.37527760183605929356
5.71670000000000033680, 	 0.66750017570352293550, 	 2.00249253047863851052, 	 3.36480099558148415539
5.71780000000000043769, 	 0.69323689985594638685, 	 2.01052474109903567268, 	 3.35449896398353919480
5.71890000000000053859, 	 0.71907621324225345916, 	 2.01874248326277339061, 	 3.34437143164864503220
5.72000000000000063949, 	 0.74502584616576550403, 	 2.02714013442033857970, 	 3.33441825006189151992
5.72109999999999985221, 	 0.77111246719424797469, 	 2.03571151773892999870, 	 3.32463887622508513786
5.72219999999999995310, 	 0.79738872429947427189, 	 2.04444999955229000932, 	 3.31503251278018673531
5.72330000000000005400, 	 0.82394089972991457760, 	 2.05334869363429728395, 	 3.30559858564511710455
5.72440000000000015490, 	 0.85089628002359107839, 	 2.06240079876611881460, 	 3.29633671608791312124
5.72550000000000025580, 	 0.87842937843828206024, 	 2.07160010887210921382, 	 3.28724629596264206199
5.72660000000000035669, 	 0.90676680185358360387, 	 2.08094175485980104057, 	 3.27832623742540851808
5.72770000000000045759, 	 0.93618991361632741821, 	 2.09042321580425127792, 	 3.26957515995429881528
5.72880000000000055849, 	 0.96703445640069529698, 	 2.10004562111312287342, 	 3.26099230603456202715
5.72990000000000065938, 	 0.99968782447576931549, 	 2.10981536705258454489, 	 3.25257652777833206059
5.73099999999999987210, 	 1.03458467714985657970, 	 2.11974601929775285925, 	 3.24432637445571536716
5.73209999999999997300, 	 1.07220110795039524909, 	 2.12986043708232930527, 	 3.23624038571547822940
5.73320000000000007390, 	 1.11304434018337783385, 	 2.14019304755043604516, 	 3.22831734557226246451
5.73430000000000017479, 	 1.15761685014666215743, 	 2.15079217362521601942, 	 3.22055648133138205935
5.73540000000000027569, 	 1.20644065070741945966, 	 2.16172233725736306909, 	 3.21295766501689117334
5.73650000000000037659, 	 1.26004721102450467640, 	 2.17306642348210088400, 	 3.20552166032295460241
5.73760000000000047748, 	 1.31898177792314696966, 	 2.18492754558265378506, 	 3.19825043400053576903
5.73870000000000057838, 	 1.38364005196249584273, 	 2.19743051205872541587, 	 3.19114753368632397823
5.73980000000000067928, 	 1.45570279624218978931, 	 2.21072287900792607829, 	 3.18421852447637787620
5.74089999999999989200, 	 1.53243957543492670403, 	 2.22497559884521578510, 	 3.17747147081082559339
5.74199999999999999289, 	 1.61671104613297922370, 	 2.24038380671395609411, 	 3.17091744648653106609
5.74310000000000009379, 	 1.70923622740934533226, 	 2.25716687105126956325, 	 3.16457105351081935396
5.74420000000000019469, 	 1.81014166883825766696, 	 2.27556317421064990825, 	 3.15845093068813298487
5.74530000000000029559, 	 1.91954426675033751337, 	 2.29582722517418647001, 	 3.15258023673043075163
5.74640000000000039648, 	 2.03782196740229570864, 	 2.31823234450008586194, 	 3.14698708860772535800
5.74750000000000049738, 	 2.16514772159932045170, 	 2.34307233289470007165, 	 3.14170490813912639538
5.74860000000000059828, 	 2.30161643671960902680, 	 2.37065948441045026840, 	 3.13677250347125635699
5.74970000000000069917, 	 2.44734398451467294322, 	 2.40132112203132619399, 	 3.13223459131859804927
5.75079999999999991189, 	 2.60241661933288837005, 	 2.43539558974025860394, 	 3.12814151954410180068
5.75190000000000001279, 	 2.76691886973402922933, 	 2.47322790323780372646, 	 3.12454921865748014298
5.75300000000000011369, 	 2.94088113356444091906, 	 2.51516552739060950117, 	 3.12151931915550306940
5.75410000000000021458, 	 3.12427158899126578007, 	 2.56155450704013798457, 	 3.11911906962983254132
5.75520000000000031548, 	 3.31702149641081245335, 	 2.61273598641347692961, 	 3.11742075116795547274
5.75630000000000041638, 	 3.51904194728398156400, 	 2.66904117809855367938, 	 3.11650184287742115785
5.75740000000000051728, 	 3.73022361851799066912, 	 2.73070200377400240654, 	 3.11644450509312997966
5.75850000000000061817, 	 3.95043828774019312178, 	 2.79799003324434236717, 	 3.11733459651432731619
5.75960000000000071907, 	 4.17954836795142892214, 	 2.87123536515073096709, 	 3.11926122790344795277
5.76069999999999993179, 	 4.41739012767372241086, 	 2.95073777398271985817, 	 3.12231557068709530967
5.76180000000000003268, 	 4.66377535061662307214, 	 3.03673864889675648726, 	 3.12659336669176690648
5.76290000000000013358, 	 4.91849424863170536781, 	 3.12945811350164904141, 	 3.13217359340732715012
5.76400000000000023448, 	 5.18131828816413175787, 	 3.22909125011645548042, 	 3.13896552376679194296
5.76510000000000033538, 	 5.45200200131795043035, 	 3.33580690815328528842, 	 3.14645015786977433336
5.76620000000000043627, 	 5.73028499590356688032, 	 3.44974663039696194389, 	 3.15472274175417677355
5.76730000000000053717, 	 6.01589546695878585325, 	 3.57102316737104219513, 	 3.16491825662142245434
5.76840000000000063807, 	 6.30854828445969673112, 	 3.69971782329819687263, 	 3.17852184412037663819
5.76949999999999985079, 	 6.60794509239592287031, 	 3.83587868065092418846, 	 3.19454863997001137221
5.77059999999999995168, 	 6.91377858817373791567, 	 3.97952357754427632486, 	 3.21267321793430138399
5.77170000000000005258, 	 7.22573529565831318422, 	 4.13064575152978452621, 	 3.23239307678176635008
5.77280000000000015348, 	 7.54349703190981379919, 	 4.28921553051205250995, 	 3.25393206425968140039
5.77390000000000025437, 	 7.86674113497373195258, 	 4.45517785146081735093, 	 3.27751771426142468613
5.77500000000000035527, 	 8.19514037814808027349, 	 4.62844878536226911336, 	 3.30327542865196033262
5.77610000000000045617, 	 8.52835968085489248836, 	 4.80891371410740653403, 	 3.33120797218754294278
5.77720000000000055707, 	 8.86606351347513310657, 	 4.99642798047654945748, 	 3.36125936851868312161
5.77830000000000065796, 	 9.20791367343763234032, 	 5.19081873360322276767, 	 3.39347538765281475648
5.77939999999999987068, 	 9.55356796702938382282, 	 5.39188664168685605205, 	 3.42792967932604408787
5.78049999999999997158, 	 9.90267996437268216425, 	 5.59940716946033845147, 	 3.46468594931519913160
5.78160000000000007248, 	 10.25489928575660414367, 	 5.81313200390899265102, 	 3.50378056743898680381
5.78270000000000017337, 	 10.60987207491094608258, 	 6.03279077066488245151, 	 3.54523327159028500688
5.78380000000000027427, 	 10.96724134208736778362, 	 6.25809286755522986567, 	 3.58905181073581225348
5.78490000000000037517, 	 11.32664715255846665798, 	 6.48872935122221505821, 	 3.63523447946564326472
5.78600000000000047606, 	 11.68772662494178327108, 	 6.72437479060031328970, 	 3.68376867480520164833
5.78710000000000057696, 	 12.05011386130965966856, 	 6.96468895969021772885, 	 3.73463578739319146393
5.78820000000000067786, 	 12.41343951023960912039, 	 7.20931838526494228603, 	 3.78781445019915530281
5.78929999999999989058, 	 12.77732961346446316497, 	 7.45789785816472061697, 	 3.84324841698018637715
5.79039999999999999147, 	 13.14140995609885465001, 	 7.71005192454616672393, 	 3.90088544941696779844
5.79150000000000009237, 	 13.50530280224566759273, 	 7.96539636539166284734, 	 3.96068589005953741733
5.79260000000000019327, 	 13.86862791918570003702, 	 8.22353958058946687970, 	 4.02261464237627830443
5.79370000000000029416, 	 14.23100263197435388918, 	 8.48408390034949988490, 	 4.08663473175398106463
5.79480000000000039506, 	 14.59204176387250662117, 	 8.74662692609597591797, 	 4.15270419799793266691
5.79590000000000049596, 	 14.95135694393084335729, 	 9.01076292502840203724, 	 4.22077523770289086968
5.79700000000000059686, 	 15.30855836739272923808, 	 9.27608424480797921774, 	 4.29079447114251255613
5.79810000000000069775, 	 15.66325662371335170064, 	 9.54218270988157968304, 	 4.36270363542138728263
5.79919999999999991047, 	 16.01505942766345569339, 	 9.80865092804378413405, 	 4.43644034823324151517
5.80030000000000001137, 	 16.36357531648952345904, 	 10.07508348779537321604, 	 4.51193879213312776244
5.80140000000000011227, 	 16.70841333649199356159, 	 10.34107809819376200267, 	 4.58913027621571956161
5.80250000000000021316, 	 17.04918392846631292059, 	 10.60623668184950396665, 	 4.66794368043757845754
5.80360000000000031406, 	 17.38550034236754271433, 	 10.87016664230932327939, 	 4.74830580661526813202
5.80470000000000041496, 	 17.71697939687685519061, 	 11.13248292019046914447, 	 4.83014210298354829121
5.80580000000000051585, 	 18.04324200109019571414, 	 11.39281314571329239982, 	 4.91337640550857290833
5.80690000000000061675, 	 18.36391388815319558603, 	 11.65078615751164292647, 	 4.99793053459367353497
5.80800000000000071765, 	 18.67862650097787025061, 	 11.90602344657523303795, 	 5.08372465141211282713
5.80909999999999993037, 	 18.98701790281021573037, 	 12.15816773486943347393, 	 5.17067842027319191089
5.81020000000000003126, 	 19.28873365871732659116, 	 12.40687261544730723983, 	 5.25871165903792636698
5.81130000000000013216, 	 19.58342772496708406038, 	 12.65180156419185131256, 	 5.34774380328673348828
5.81240000000000023306, 	 19.87076335352772460396, 	 12.89262891235197727724, 	 5.43769360590538042288
5.81350000000000033396, 	 20.15041399782858277945, 	 13.12904025299910415470, 	 5.52847875508052322147
5.81460000000000043485, 	 20.42206420194641580679, 	 13.36073264136143734504, 	 5.62001577936765883692
5.81570000000000053575, 	 20.68541066889822488406, 	 13.58741493845750269998, 	 5.71222059764946710203
5.81680000000000063665, 	 20.94016238548507402584, 	 13.80880816700721602786, 	 5.80500813820399219622
5.81789999999999984936, 	 21.18604259822947000202, 	 14.02464595551618842251, 	 5.89829307020811022255
5.81899999999999995026, 	 21.42278925395712008140, 	 14.23467484862991128125, 	 5.99199068734716888684
5.82010000000000005116, 	 21.65015419691279419112, 	 14.43865451214629658239, 	 6.08601700958414770781
5.82120000000000015206, 	 21.86790369980619175294, 	 14.63635793635851634065, 	 6.18028872914869076283
5.82230000000000025295, 	 22.07581969803193189250, 	 14.82757163826255819572, 	 6.27472317703596615956
5.82340000000000035385, 	 22.27370093340869416920, 	 15.01209584920792927676, 	 6.36923833188300392294
5.82450000000000045475, 	 22.46136373204754121957, 	 15.18974467789660387496, 	 6.46375286497984546941
5.82560000000000055564, 	 22.63864244395584890412, 	 15.36034624581747110028, 	 6.55818621111793387257
5.82670000000000065654, 	 22.80538956093333169406, 	 15.52374279751194841026, 	 6.65245865629717147982
5.82779999999999986926, 	 22.96147576686913183153, 	 15.67979078950185467534, 	 6.74649143558079256167
5.82889999999999997016, 	 23.10678993656982171956, 	 15.82836096027727457169, 	 6.84020683643351734560
5.83000000000000007105, 	 23.24123907253657606020, 	 15.96933838125110938222, 	 6.93352830447475998454
5.83110000000000017195, 	 23.36474829693247912132, 	 16.10262248674735374721, 	 7.02638054975532000412
5.83220000000000027285, 	 23.47726090849699076557, 	 16.22812708035055351274, 	 7.11868965248990459571
5.83330000000000037375, 	 23.57873724382029934077, 	 16.34578031500499761819, 	 7.21038316770346732199
5.83440000000000047464, 	 23.66915568257254420814, 	 16.45552464527012759277, 	 7.30139026083182418603
5.83550000000000057554, 	 23.74851292804125790781, 	 16.55731675475949060683, 	 7.39164197801383071607
5.83660000000000067644, 	 23.81682276734056102896, 	 16.65112747130205050894, 	 7.48107091569384419216
5.83769999999999988916, 	 23.87411504020340302645, 	 16.73694163424445591204, 	 7.56961143386497159469
5.83879999999999999005, 	 23.92043570548968034473, 	 16.81475790404581616144, 	 7.65720029204234453601
5.83990000000000009095, 	 23.95584690718763454242, 	 16.88458857005733193546, 	 7.74378052893563673109
5.84100000000000019185, 	 23.98043036123296900541, 	 16.94645936372274874770, 	 7.82929172760166025569
5.84210000000000029274, 	 23.99428453208741274238, 	 17.00040939349912250123, 	 7.91366873135859982824
5.84320000000000039364, 	 23.99752122324339609349, 	 17.04649111750013190658, 	 7.99685031532684664768
5.84430000000000049454, 	 23.99026455404513669123, 	 17.08476581079988321221, 	 8.07878190055322242813
5.84540000000000059543, 	 23.97265067455591847079, 	 17.11530957351694937074, 	 8.15941468450149187674
5.84650000000000069633, 	 23.94482797270215357344, 	 17.13821054462160020648, 	 8.23870412765632842422
5.84759999999999990905, 	 23.90695715433572132724, 	 17.15356814787123340693, 	 8.31660888453645874563
5.84870000000000000995, 	 23.85921093013397253912, 	 17.16149300254035381386, 	 8.39308985007622432306
5.84980000000000011084, 	 23.80177343947496382270, 	 17.16210627416347733742, 	 8.46810958089715981600
5.85090000000000021174, 	 23.73483952956922138355, 	 17.15553925262453915934, 	 8.54163240406294477225
5.85200000000000031264, 	 23.65861401705879174528, 	 17.14193292153649039733, 	 8.61362472931424782985
5.85310000000000041354, 	 23.57331096936074388282, 	 17.12143747893241396696, 	 8.68405531424272325580
5.85420000000000051443, 	 23.47915254381670635553, 	 17.09421182273279171682, 	 8.75289545026190474175
5.85530000000000061533, 	 23.37634467639941959760, 	 17.06042299449886812113, 	 8.82011907855531696043
5.85640000000000071623, 	 23.26512215739037969797, 	 17.02024434152756882099, 	 8.88570285150332672686
5.85749999999999992895, 	 23.14568777121535347874, 	 16.97384808230095742942, 	 8.94962615364790003980
5.85860000000000002984, 	 23.01824228338449529474, 	 16.92140216087945603363, 	 9.01187109203134717461
5.85970000000000013074, 	 22.88302071526340952801, 	 16.86318676782648751100, 	 9.07242244879697246063
5.86080000000000023164, 	 22.74034311805096209014, 	 16.79935735199293489472, 	 9.13126755876152174096
5.86190000000000033253, 	 22.59056448711752551617, 	 16.73010499440396969817, 	 9.18839611847868020789
5.86300000000000043343, 	 22.43401087227765700050, 	 16.65563390370139273955, 	 9.24380005570640506107
5.86410000000000053433, 	 22.27097694723863696709, 	 16.57615415168748640440, 	 9.29747357869631052552
5.86520000000000063523, 	 22.10173730836137906408, 	 16.49187857041386706669, 	 9.34941336151023172363
5.86629999999999984794, 	 21.92655630597027283102, 	 16.40302268270947649853, 	 9.39961871513785851562
5.86739999999999994884, 	 21.74569469293561851941, 	 16.30980444920546190701, 	 9.44809162705265848103
5.86850000000000004974, 	 21.55941304708364469889, 	 16.21244385639178986480, 	 9.49483665191662140614
5.86960000000000015064, 	 21.36796410762233477953, 	 16.11116229857441339846, 	 9.53986069541848813458
5.87070000000000025153, 	 21.17164795778656127823, 	 16.00618187093342470462, 	 9.58317276652391214498
5.87180000000000035243, 	 20.97078861298468055452, 	 15.89772462904313954368, 	 9.62478378754278196539
5.87290000000000045333, 	 20.76565864493626634157, 	 15.78601187180468912175, 	 9.66470638015662331100
5.87400000000000055422, 	 20.55650535830731939768, 	 15.67126351283425123029, 	 9.70295462274290265725
5.87510000000000065512, 	 20.34356816497250974862, 	 15.55369760438697568361, 	 9.73954405235468811952
5.87619999999999986784, 	 20.12708581478472424919, 	 15.43352992087270436627, 	 9.77449189018631159342
5.87729999999999996874, 	 19.90729827453246869595, 	 15.31097346173113749046, 	 9.80781689551804980454
5.87840000000000006963, 	 19.68444629903213538569, 	 15.18623786939695285980, 	 9.83953898863144438280
5.87950000000000017053, 	 19.45877022208711082385, 	 15.05952886569680515549, 	 9.86967899192527831076
5.88060000000000027143, 	 19.23050723619664381658, 	 14.93104768010353211594, 	 9.89825846065339121083
5.88170000000000037232, 	 18.99989287467249710062, 	 14.80099058589087057669, 	 9.92530004978879354383
5.88280000000000047322, 	 18.76716048911065115590, 	 14.66954850476632898904, 	 9.95082828877950653634
5.88390000000000057412, 	 18.53253806346072707356, 	 14.53690662579546533095, 	 9.97486950184348231119
5.88500000000000067502, 	 18.29624723323801305241, 	 14.40324408806915812420, 	 9.99745082262286643981
5.88609999999999988773, 	 18.05850479996371404923, 	 14.26873374533756155813, 	 10.01859953951281312357
5.88719999999999998863, 	 17.81952276232394183353, 	 14.13354202057161401740, 	 10.03834158790741426515
5.88830000000000008953, 	 17.57950653086153636195, 	 13.99782885495799789055, 	 10.05670195762320062727
5.88940000000000019043, 	 17.33865507147356410655, 	 13.86174761496605079003, 	 10.07370724479098278437
5.89050000000000029132, 	 17.09719045468239428942, 	 13.72544494753177524160, 	 10.08938571953625817912
5.89160000000000039222, 	 16.85539236581234590062, 	 13.58906067425426122952, 	 10.10376560736728279721
5.89270000000000049312, 	 16.61341961749986495533, 	 13.45272773180436765017, 	 10.11687634728684948016
5.89380000000000059401, 	 16.37141012476655177466, 	 13.31657223343533757998, 	 10.12874690090631801809
5.89490000000000069491, 	 16.12950148904774749781, 	 13.18071364840958104026, 	 10.13940696455790480002
5.89599999999999990763, 	 15.88783267266962084818, 	 13.04526495539046848648, 	 10.14888605402832233437
5.89710000000000000853, 	 15.64654067319165875460, 	 12.91033258781680181926, 	 10.15721223403908624050
5.89820000000000010942, 	 15.40576217347307697025, 	 12.77601627221036473259, 	 10.16441139106395752378
5.89930000000000021032, 	 15.16563039907697252318, 	 12.64241041157377232196, 	 10.17051102230165327001
5.90040000000000031122, 	 14.92627202531921959405, 	 12.50960172523055291549, 	 10.17553857139726503078
5.90150000000000041211, 	 14.68780634985756705646, 	 12.37766692264903944931, 	 10.17952067847138408752
5.90260000000000051301, 	 14.45034721400710076011, 	 12.24667759379495990402, 	 10.18248316766034200498
5.90370000000000061391, 	 14.21400250754086336258, 	 12.11669833895178349792, 	 10.18445129399297677253
5.90480000000000071481, 	 13.97887338988149075192, 	 11.98778696021609491140, 	 10.18544987679571001138
5.90589999999999992752, 	 13.74505418335703410548, 	 11.85999471058298482262, 	 10.18550326379590664772
5.90700000000000002842, 	 13.51263239632081614161, 	 11.73336652764511001124, 	 10.18463525478554032588
5.90810000000000012932, 	 13.28168874579791136625, 	 11.60794125851711910968, 	 10.18286904326630626372
5.90920000000000023022, 	 13.05229725248256755776, 	 11.48375188095306320690, 	 10.18022717875226668127
5.91030000000000033111, 	 12.82452537014607152344, 	 11.36082572385938682658, 	 10.17673154461205697885
5.91140000000000043201, 	 12.59843414972594644041, 	 11.23918468849569229917, 	 10.17240335160585651408
