x [cm], 	 0.69214285714285717077, 	 48.45000000000000284217, 	 96.20785714285715073402
0.00000000000000000000, 	 0.00000000000000000000, 	 0.00000000000000000000, 	 0.00000000000000000000
5.70020000000000059970, 	 0.34669567289631902929, 	 2.05524930326685995041, 	 3.79389452723576559023
5.70130000000000070060, 	 0.37023333245483114329, 	 2.06034603459719134477, 	 3.78015995190903097978
5.70239999999999991331, 	 0.39414861374375065317, 	 2.06566260708280236003, 	 3.76660165804987112637
5.70350000000000001421, 	 0.41842220727978302053, 	 2.07119965427607555242, 	 3.75322044013991895639
5.70460000000000011511, 	 0.44303494644965546456, 	 2.07695774226786600281, 	 3.74001709707283591655
5.70570000000000021600, 	 0.46796759650940927822, 	 2.08293729070580369012, 	 3.72699243273613056715
5.70680000000000031690, 	 0.49320085171876620889, 	 2.08913851555511964619, 	 3.71414723241534794340
5.70790000000000041780, 	 0.51871497918002107408, 	 2.09556136778911561436, 	 3.70148226790907131090
5.70900000000000051870, 	 0.54448994933068561863, 	 2.10220547479710884176, 	 3.68899828756077008407
5.71010000000000061959, 	 0.57050550083183992900, 	 2.10907010122096449933, 	 3.67669598131495201088
5.71119999999999983231, 	 0.59674113543146400929, 	 2.11615410223204536422, 	 3.66457600843139941205
5.71229999999999993321, 	 0.62317612998400295776, 	 2.12345587547276881679, 	 3.65263899736254593620
5.71340000000000003411, 	 0.64978963017233082322, 	 2.13097331915911691880, 	 3.64088548739723405490
5.71450000000000013500, 	 0.67656093935669614492, 	 2.13870378715807030190, 	 3.62931590726625641352
5.71560000000000023590, 	 0.70347020688474615202, 	 2.14664405015139747590, 	 3.61793054909782130224
5.71670000000000033680, 	 0.73049981082937376353, 	 2.15479026646102367337, 	 3.60672966176682141537
5.71780000000000043769, 	 0.75763681495263046628, 	 2.16313795282540644038, 	 3.59571342607661170732
5.71890000000000053859, 	 0.78487679945337363030, 	 2.17168196647326894322, 	 3.58488180909117604145
5.72000000000000063949, 	 0.81222900626845440097, 	 2.18041651600965336044, 	 3.57423467901230429433
5.72109999999999985221, 	 0.83972318715029703462, 	 2.18933520302584128103, 	 3.56377152871460678440
5.72219999999999995310, 	 0.86741734262681724488, 	 2.19843112669347906518, 	 3.55349154559709612400
5.72330000000000005400, 	 0.89540598778010926928, 	 2.20769710608247660133, 	 3.54339406768562881211
5.72440000000000015490, 	 0.92382811972449863092, 	 2.21712604885020114764, 	 3.53347870064942348733
5.72550000000000025580, 	 0.95287394377493217501, 	 2.22671150830734321246, 	 3.52374483415078865178
5.72660000000000035669, 	 0.98279012718912661661, 	 2.23644848977356369701, 	 3.51419146065857512795
5.72770000000000045759, 	 1.01388264786668647055, 	 2.24633455079929111875, 	 3.50481698127932350673
5.72880000000000055849, 	 1.04651632260778537642, 	 2.25637121517076266741, 	 3.49562057133982628798
5.72990000000000065938, 	 1.08111185258086939243, 	 2.26656572479411622112, 	 3.48660107567293842123
5.73099999999999987210, 	 1.11814102662742786976, 	 2.27693310556620076568, 	 3.47775699543621907850
5.73209999999999997300, 	 1.15811986787117970898, 	 2.28749847302631748036, 	 3.46908679585709522897
5.73320000000000007390, 	 1.20160050582928246143, 	 2.29829949841558978108, 	 3.46058919596753833403
5.73430000000000017479, 	 1.24912805403735815979, 	 2.30938893168172798553, 	 3.45226339678272031719
5.73540000000000027569, 	 1.30126621941775022506, 	 2.32083709735202825541, 	 3.44410930521720271003
5.73650000000000037659, 	 1.35859107951698243610, 	 2.33273423706547911038, 	 3.43612780325476130372
5.73760000000000047748, 	 1.42169399963831977196, 	 2.34519252853592785613, 	 3.42832108528098800093
5.73870000000000057838, 	 1.49108420119340001619, 	 2.35834766757865477160, 	 3.42069306705889486508
5.73980000000000067928, 	 1.56830258461316862650, 	 2.37235999893294113861, 	 3.41324985851602891174
5.74089999999999989200, 	 1.65066703678730331006, 	 2.38741522259788441218, 	 3.40600028587219938458
5.74199999999999999289, 	 1.74127116061175635231, 	 2.40372534335450094289, 	 3.39895644437853094999
5.74310000000000009379, 	 1.84082040786285583422, 	 2.42152844041615811221, 	 3.39213426060668510331
5.74420000000000019469, 	 1.94942903684429169608, 	 2.44108277666539885686, 	 3.38555404363194201167
5.74530000000000029559, 	 2.06723552402185628551, 	 2.46266425083529849616, 	 3.37924100885792277893
5.74640000000000039648, 	 2.19466620876980744725, 	 2.48656952683745702259, 	 3.37322575207622543658
5.74750000000000049738, 	 2.33188581258202631830, 	 2.51311754472403237060, 	 3.36754461897927059866
5.74860000000000059828, 	 2.47900622262487768666, 	 2.54264717597250999859, 	 3.36223979210926326999
5.74970000000000069917, 	 2.63615505562332419487, 	 2.57551343861595549711, 	 3.35735986633074601215
5.75079999999999991189, 	 2.80342948492472032740, 	 2.61208311789968750105, 	 3.35295952146169318198
5.75190000000000001279, 	 2.98092159472516460283, 	 2.65273005786273108342, 	 3.34909950075193973973
5.75300000000000011369, 	 3.16866023680686437203, 	 2.69783062441097598594, 	 3.34584673414302713468
5.75410000000000021458, 	 3.36660856850797030049, 	 2.74775953988277210627, 	 3.34327424360542746484
5.75520000000000031548, 	 3.57469281819826800728, 	 2.80288617101117676356, 	 3.34146046190100198814
5.75630000000000041638, 	 3.79281824081909446633, 	 2.86356970556060730360, 	 3.34048956279256614721
5.75740000000000051728, 	 4.02086669177386291096, 	 2.93005186144043383578, 	 3.34045068103664588577
5.75850000000000061817, 	 4.25870041016955358515, 	 3.00262954534835069254, 	 3.34143698309387504608
5.75960000000000071907, 	 4.50616989551702751271, 	 3.08167951365001435704, 	 3.34354513215014437222
5.76069999999999993179, 	 4.76309678959563420619, 	 3.16751056171621492297, 	 3.34687400404050094949
5.76180000000000003268, 	 5.02927601884171249225, 	 3.26038570249080450481, 	 3.35152736986842869626
5.76290000000000013358, 	 5.30447912136118038262, 	 3.36054328192393914065, 	 3.35759032416618508066
5.76400000000000023448, 	 5.58845721090219971217, 	 3.46819429672884238514, 	 3.36494210797540072022
5.76510000000000033538, 	 5.88094303047231470316, 	 3.58352135288877526875, 	 3.37303101142463024331
5.76620000000000043627, 	 6.18165326951040050574, 	 3.70667743983870678903, 	 3.38201755535801495967
5.76730000000000053717, 	 6.49029215833043160444, 	 3.83778429576797641687, 	 3.39316903326373653371
5.76840000000000063807, 	 6.80654840075907952013, 	 3.97692947677674357720, 	 3.40794747342359460873
5.76949999999999985079, 	 7.13009696373686807647, 	 4.12416456220433325086, 	 3.42532964117028360107
5.77059999999999995168, 	 7.46060360914532072485, 	 4.27950856691626491113, 	 3.44496649749932792872
5.77170000000000005258, 	 7.79772763587109007943, 	 4.44295395190128505902, 	 3.46632028654336599161
5.77280000000000015348, 	 8.14112309640186282422, 	 4.61446818484104248625, 	 3.48965688715518895791
5.77390000000000025437, 	 8.49043900053823996643, 	 4.79399095124474783347, 	 3.51521906307262455016
5.77500000000000035527, 	 8.84531910572509971757, 	 4.98143043097668503094, 	 3.54313327710162706552
5.77610000000000045617, 	 9.20539848626778400842, 	 5.17666145893970064407, 	 3.57339866322948651600
5.77720000000000055707, 	 9.57031202682577308849, 	 5.37952632118958007368, 	 3.60595812795687242769
5.77830000000000065796, 	 9.93969142702042418591, 	 5.58983676048195388120, 	 3.64086503105627068422
5.77939999999999987068, 	 10.31316405486790621637, 	 5.80737579296956241137, 	 3.67819949296743509137
5.78049999999999997158, 	 10.69035269158140266654, 	 6.03189907532303681847, 	 3.71802911921402445827
5.78160000000000007248, 	 11.07087587604488909676, 	 6.26313646124288148087, 	 3.76039235040492014761
5.78270000000000017337, 	 11.45434842423843946335, 	 6.50079386214672716449, 	 3.80531004811796735865
5.78380000000000027427, 	 11.84038180594902378573, 	 6.74455523269640444539, 	 3.85279038793876482671
5.78490000000000037517, 	 12.22858434202872324192, 	 6.99408461177764895211, 	 3.90283108296915948188
5.78600000000000047606, 	 12.61856119361106642884, 	 7.24902812446464928087, 	 3.95541829170626524359
5.78710000000000057696, 	 13.00991429763162798849, 	 7.50901580588185879606, 	 4.01053208077679101962
5.78820000000000067786, 	 13.40224171509604467190, 	 7.77366327881172658465, 	 4.06814803490111920325
5.78929999999999989058, 	 13.79513696312988280113, 	 8.04257339525146441872, 	 4.12820493788894715692
5.79039999999999999147, 	 14.18819319700823555763, 	 8.31533785936155211971, 	 4.19064684712980817238
5.79150000000000009237, 	 14.58099979965015258188, 	 8.59153883473969237627, 	 4.25543113804636607966
5.79260000000000019327, 	 14.97314357371861071044, 	 8.87075044313750105118, 	 4.32251973179247084289
5.79370000000000029416, 	 15.36420872531701320440, 	 9.15254019481917602263, 	 4.39187226869128899409
5.79480000000000039506, 	 15.75377682673802404167, 	 9.43647045434819098375, 	 4.46344288023762025830
5.79590000000000049596, 	 16.14142580658760905976, 	 9.72209996308069612780, 	 4.53717933509373594347
5.79700000000000059686, 	 16.52673294118971369926, 	 10.00898538237335522183, 	 4.61302335951146336157
5.79810000000000069775, 	 16.90927533527653636725, 	 10.29668281483987790637, 	 4.69091139615741514746
5.79919999999999991047, 	 17.28862716784342623555, 	 10.58474922033163778678, 	 4.77077542917723018689
5.80030000000000001137, 	 17.66436394164319167999, 	 10.87274372345904893677, 	 4.85254371999790201642
5.80140000000000011227, 	 18.03606165048810083817, 	 11.16022885927760377456, 	 4.93614141049403976069
5.80250000000000021316, 	 18.40329806511790167178, 	 11.44677178291840036195, 	 5.02149100042051177439
5.80360000000000031406, 	 18.76565419562846770418, 	 11.73194572401274982099, 	 5.10851273007044159868
5.80470000000000041496, 	 19.12271500798979673164, 	 12.01533244551375645415, 	 5.19712541556972240642
5.80580000000000051585, 	 19.47407001332733500476, 	 12.29652797542806652586, 	 5.28724599435637809819
5.80690000000000061675, 	 19.81931410100138180042, 	 12.57512554995364695287, 	 5.37878920221669343249
5.80800000000000071765, 	 20.15804850206605891572, 	 12.85071462534884290108, 	 5.47166805543706580295
5.80909999999999993037, 	 20.48988174711719878474, 	 13.12290774513273738933, 	 5.56579508073039441740
5.81020000000000003126, 	 20.81443061844600350696, 	 13.39132844176590708685, 	 5.66108301544400216443
5.81130000000000013216, 	 21.13132112529476813734, 	 13.65561111102898905756, 	 5.75744405370016743007
5.81240000000000023306, 	 21.44018949269048235351, 	 13.91540205392836249132, 	 5.85478960489551614188
5.81350000000000033396, 	 21.74068314577723981529, 	 14.17035984984136298692, 	 5.95302985739113221797
5.81460000000000043485, 	 22.03246181096769618080, 	 14.42015560300968601837, 	 6.05207378902758108552
5.81570000000000053575, 	 22.31519807393295806719, 	 14.66447333474544301168, 	 6.15182963079901767856
5.81680000000000063665, 	 22.58857863580366043266, 	 14.90301039377017033871, 	 6.25220455502898975197
5.81789999999999984936, 	 22.85230593059143799906, 	 15.13547794962259906981, 	 6.35310565649130509769
5.81899999999999995026, 	 23.10609718203648554891, 	 15.36160130514389976497, 	 6.45444075351536916685
5.82010000000000005116, 	 23.34968460190964378853, 	 15.58112012543789859365, 	 6.55611844176800229178
5.82120000000000015206, 	 23.58281665471674060086, 	 15.79378866908439427164, 	 6.65804803658831811930
5.82230000000000025295, 	 23.80525941463698202938, 	 15.99937601199782299943, 	 6.76013954574311259904
5.82340000000000035385, 	 24.01679756588249858851, 	 16.19766624957567913157, 	 6.86230368773074328459
5.82450000000000045475, 	 24.21723502488778123620, 	 16.38845867086780927480, 	 6.96445194746023155119
5.82560000000000055564, 	 24.40639517771993638462, 	 16.57156790532827628226, 	 7.06649665821708605762
5.82670000000000065654, 	 24.58412099977224940517, 	 16.74682404543531077934, 	 7.16835110052112423062
5.82779999999999986926, 	 24.75027511841410543525, 	 16.91407274781517600104, 	 7.26992961092588085847
5.82889999999999997016, 	 24.90473980252980723549, 	 17.07317531320877179724, 	 7.37114769598834307374
5.83000000000000007105, 	 25.04741690929862585335, 	 17.22400874357229483280, 	 7.47192214834588774863
5.83110000000000017195, 	 25.17822816767279903161, 	 17.36646577359757870340, 	 7.57217116308439219807
5.83220000000000027285, 	 25.29711409332571037112, 	 17.50045487374214303600, 	 7.67181445342026968603
5.83330000000000037375, 	 25.40403450745636604324, 	 17.62590022256359034714, 	 7.77077336521248440704
5.83440000000000047464, 	 25.49896947297225580087, 	 17.74274164758544003462, 	 7.86897106240633181784
5.83550000000000057554, 	 25.58191827345627800128, 	 17.85093454187319395032, 	 7.96633273914048523068
5.83660000000000067644, 	 25.65289814454815697786, 	 17.95044976031438110908, 	 8.06278526582220678165
5.83769999999999988916, 	 25.71194405511489122773, 	 18.04127345545450822328, 	 8.15825750570147079088
5.83879999999999999005, 	 25.75910859176778089363, 	 18.12340686691518598650, 	 8.25268189365848314765
5.83990000000000009095, 	 25.79446516073593542728, 	 18.19686611297834843981, 	 8.34599685795323154025
5.84100000000000019185, 	 25.81810694817905726950, 	 18.26168199433084993188, 	 8.43813389802344282487
5.84210000000000029274, 	 25.83014241824698586925, 	 18.31790006421199379361, 	 8.52902231044229708345
5.84320000000000039364, 	 25.83069401239588458452, 	 18.36557948412457008658, 	 8.61859715411918081429
5.84430000000000049454, 	 25.81989769574071758029, 	 18.40478972836332616225, 	 8.70680071220792406450
5.84540000000000059543, 	 25.79790314143369656108, 	 18.43561705368466263621, 	 8.79358106493208957488
5.84650000000000069633, 	 25.76487396919654671024, 	 18.45816005496056178004, 	 8.87889058049436208364
5.84759999999999990905, 	 25.72098747663201478986, 	 18.47252983382140456570, 	 8.96268481045916942662
5.84870000000000000995, 	 25.66643404495360769602, 	 18.47884955201869061625, 	 9.04492149927939870224
5.84980000000000011084, 	 25.60141636839306400475, 	 18.47725378910386240250, 	 9.12556018270539226478
5.85090000000000021174, 	 25.52614865765151108690, 	 18.46788810039408801345, 	 9.20456242903856569626
5.85200000000000031264, 	 25.44085586840949275711, 	 18.45090853278639642099, 	 9.28189217599521221302
5.85310000000000041354, 	 25.34577295413174624628, 	 18.42648109293714497881, 	 9.35751599579179149657
5.85420000000000051443, 	 25.24113769729990508495, 	 18.39478118005875373342, 	 9.43140327466329786432
5.85530000000000061533, 	 25.12717668887871624861, 	 18.35599285734038232931, 	 9.50352632069695069106
5.85640000000000071623, 	 25.00414480668807826191, 	 18.31030482677399007230, 	 9.57386041690709888030
5.85749999999999992895, 	 24.87224760748244634101, 	 18.25790187507607953421, 	 9.64238383400589071925
5.85860000000000002984, 	 24.73171555449255976100, 	 18.19902083194432051982, 	 9.70907780978152423756
5.85970000000000013074, 	 24.58283428316376628686, 	 18.13387656334183617446, 	 9.77392647354594856779
5.86080000000000023164, 	 24.42598129242072602096, 	 18.06270158949323345610, 	 9.83691667535531522049
5.86190000000000033253, 	 24.26153352707954979905, 	 17.98568744992357792967, 	 9.89803777956767305568
5.86300000000000043343, 	 24.08983068449946429723, 	 17.90306182402811785437, 	 9.95728159286950997853
5.86410000000000053433, 	 23.91118365442170201618, 	 17.81505482574331011847, 	 10.01464249892264568587
5.86520000000000063523, 	 23.72588619960104594497, 	 17.72189966830524099350, 	 10.07011768385285499505
5.86629999999999984794, 	 23.53422453342125919562, 	 17.62383260034038556796, 	 10.12370728131690889029
5.86739999999999994884, 	 23.33648297887829770048, 	 17.52109247312215956072, 	 10.17541434836152625110
5.86850000000000004974, 	 23.13294340964184669929, 	 17.41392022845760934047, 	 10.22524468816063247800
5.86960000000000015064, 	 22.92389439249750893168, 	 17.30255817405137719334, 	 10.27320658272561892943
5.87070000000000025153, 	 22.70970083064076305845, 	 17.18724917925629469551, 	 10.31931054587261620270
5.87180000000000035243, 	 22.49068242311552623391, 	 17.06823587011265885849, 	 10.36356911252809887003
5.87290000000000045333, 	 22.26711880668569421005, 	 16.94575986964784775068, 	 10.40599655227672215574
5.87400000000000055422, 	 22.03927462595639497067, 	 16.82006119922706588454, 	 10.44660873735561779085
5.87510000000000065512, 	 21.80741156811997427667, 	 16.69137780847820806684, 	 10.48542330740994543703
5.87619999999999986784, 	 21.57179240860507363209, 	 16.55994504375331288770, 	 10.52245970087855653219
5.87729999999999996874, 	 21.33268133562057400354, 	 16.42599505186779040855, 	 10.55773896450309123907
5.87840000000000006963, 	 21.09034285011739484617, 	 16.28975612102439640694, 	 10.59128309971405990098
5.87950000000000017053, 	 20.84503991204765682710, 	 16.15145204947216228675, 	 10.62311511800097463265
5.88060000000000027143, 	 20.59703150197730892046, 	 16.01130156124792947026, 	 10.65325895405214318146
5.88170000000000037232, 	 20.34657632147549577439, 	 15.86951783879309019198, 	 10.68174034416869311315
5.88280000000000047322, 	 20.09392808249094741768, 	 15.72630809056545864166, 	 10.70858781940191661874
5.88390000000000057412, 	 19.83933418468772202914, 	 15.58187316352068663150, 	 10.73383088973208820960
5.88500000000000067502, 	 19.58303558322803894498, 	 15.43640721890946565509, 	 10.75749883740341061866
5.88609999999999988773, 	 19.32526909726733066464, 	 15.29009753292758766463, 	 10.77961991617758918949
5.88719999999999998863, 	 19.06626449322447669488, 	 15.14312440337926268796, 	 10.80022152081616937380
5.88830000000000008953, 	 18.80624459081757038348, 	 14.99566106442322421799, 	 10.81933232779777931398
5.88940000000000019043, 	 18.54543335361415401508, 	 14.84787350818067075409, 	 10.83698321763190897116
5.89050000000000029132, 	 18.28414470876870012717, 	 14.69992034302130612389, 	 10.85320510351493616952
5.89160000000000039222, 	 18.02258871474030854642, 	 14.55195269401098201456, 	 10.86803033743708191139
5.89270000000000049312, 	 17.76092193236573990589, 	 14.40411421157011062633, 	 10.88149099390490981420
5.89380000000000059401, 	 17.49929814465424726677, 	 14.25654123130533257324, 	 10.89361991743902180474
5.89490000000000069491, 	 17.23787260421523725995, 	 14.10936296052716976135, 	 10.90445006610803702074
5.89599999999999990763, 	 16.97679971664446441082, 	 13.96270147083804324950, 	 10.91401250160296321212
5.89710000000000000853, 	 16.71623191112721684704, 	 13.81667153333263087234, 	 10.92233597319423310523
5.89820000000000010942, 	 16.45631980248343850803, 	 13.67138081260755022583, 	 10.92945105696395735606
5.89930000000000021032, 	 16.19720752896815696431, 	 13.52693215255902536853, 	 10.93538826816770992423
5.90040000000000031122, 	 15.93903099864045458389, 	 13.38341436587949218051, 	 10.94017725083878644909
5.90150000000000041211, 	 15.68191930270170608708, 	 13.24091118079886797432, 	 10.94384677162808650053
5.90260000000000051301, 	 15.42599548518809449149, 	 13.09949875261328777754, 	 10.94642500567092646691
5.90370000000000061391, 	 15.17137532729814886068, 	 12.95924563840762999689, 	 10.94793973434350853324
5.90480000000000071481, 	 14.91816707358021609764, 	 12.82021306076466338197, 	 10.94841831110447394337
5.90589999999999992752, 	 14.66647141021798717020, 	 12.68245516126580874072, 	 10.94788754119312024216
5.90700000000000002842, 	 14.41638147960292037908, 	 12.54601924004833612969, 	 10.94637358498326307199
5.90810000000000012932, 	 14.16798296839336046560, 	 12.41094599116118679660, 	 10.94390189836575899562
5.90920000000000023022, 	 13.92135423085774270646, 	 12.27726973750862171642, 	 10.94049720162957406444
5.91030000000000033111, 	 13.67656645656143332701, 	 12.14501866682818409515, 	 10.93618347076543173557
5.91140000000000043201, 	 13.43368386674946179937, 	 12.01421507498349505738, 	 10.93098392491412340632
