x [cm], 	 0.40000000000000002220, 	 2.00000000000000000000, 	 3.60000000000000008882
0.00000000000000000000, 	 0.00000000000000000000, 	 0.00000000000000000000, 	 0.00000000000000000000
5.70020000000000059970, 	 3.30938700788378925566, 	 4.73903245673171902297, 	 6.19401117525865885227
5.70130000000000070060, 	 4.29119471575409683339, 	 5.24931739301978961265, 	 6.47099012547062368839
5.70239999999999991331, 	 6.52435135823667256005, 	 6.94825251734266213788, 	 7.74382963959092052164
5.70350000000000001421, 	 9.80667610985100246523, 	 9.77114139706366380267, 	 10.11976132899353686412
5.70460000000000011511, 	 13.89481467449158635930, 	 13.48323002395305181267, 	 13.37060969135467480839
5.70570000000000021600, 	 18.57292956008188511419, 	 17.87758152188502691615, 	 17.29916236733971501849
5.70680000000000031690, 	 23.52105452468495982998, 	 22.56736911473156226293, 	 21.56933009982540028204
5.70790000000000041780, 	 28.42379351781669782895, 	 27.25057474865621287563, 	 25.93471293485242057386
5.70900000000000051870, 	 33.11595235899616085362, 	 31.78303032251930204666, 	 30.25450593347526861976
5.71010000000000061959, 	 37.58564418213471469699, 	 36.13961950764138464365, 	 34.47287978000818498003
5.71119999999999983231, 	 41.87263183482604489427, 	 40.32693912200308972160, 	 38.56089016664692081804
5.71229999999999993321, 	 46.03230644455900488765, 	 44.38686915126092458195, 	 42.53734939553780947108
5.71340000000000003411, 	 50.11628481777629673388, 	 48.36265254881801922693, 	 46.43401109945650517830
5.71450000000000013500, 	 54.16791732935519121384, 	 52.30203853504643518590, 	 50.29035958964217911671
5.71560000000000023590, 	 58.22272934333891214465, 	 56.24118519560582996064, 	 54.13718797595961262914
5.71670000000000033680, 	 62.29822074594504499601, 	 60.19928615028955931621, 	 57.99449073488926842401
5.71780000000000043769, 	 66.39946524469354471876, 	 64.18419815887700963231, 	 61.87408775405585004137
5.71890000000000053859, 	 70.52390936287946487937, 	 68.19528656108998632135, 	 65.77828345537255927411
5.72000000000000063949, 	 74.66326817473455434993, 	 72.22461689244919114117, 	 69.70056066474575118264
5.72109999999999985221, 	 78.80561691306878913110, 	 76.25947563700252374019, 	 73.62895778588020334610
5.72219999999999995310, 	 82.93864328163080301692, 	 80.28648823915754917380, 	 77.55095218694634695566
5.72330000000000005400, 	 87.05318300185955138204, 	 84.29587069493562978550, 	 81.45786210771919400031
5.72440000000000015490, 	 91.14555946229782534829, 	 88.28406611934420311627, 	 85.34718623966105610634
5.72550000000000025580, 	 95.21782725045385120666, 	 92.25389391821943263494, 	 89.22241517319504566785
5.72660000000000035669, 	 99.27609022255688842051, 	 96.21257456737694724325, 	 93.09096417807960222035
5.72770000000000045759, 	 103.32786005239042026460, 	 100.16877887548483272440, 	 96.96138368876792412721
5.72880000000000055849, 	 107.37957288384514242807, 	 104.12992145546152755742, 	 100.84091429864973576969
5.72990000000000065938, 	 111.43502721635533703193, 	 108.10048513445728701754, 	 104.73400877612429837882
5.73099999999999987210, 	 115.49496132367775658167, 	 112.08157151849540866806, 	 108.64193387908753152260
5.73209999999999997300, 	 119.55754088022588632612, 	 116.07141404994349898061, 	 112.56320414376672545131
5.73320000000000007390, 	 123.61931883665980080877, 	 120.06638998043645472080, 	 116.49445769679996942614
5.73430000000000017479, 	 127.67624780004602769168, 	 124.06209763734290163484, 	 120.43141725864555269254
5.73540000000000027569, 	 131.72447328834283553078, 	 128.05422065871067616172, 	 124.36970294164825645566
5.73650000000000037659, 	 135.76080527114680762679, 	 132.03906830816816864171, 	 128.30538626042672945005
5.73760000000000047748, 	 139.78288764817250466876, 	 136.01380381746318448677, 	 132.23527614175048938705
5.73870000000000057838, 	 143.78914909391912146930, 	 139.97643685738157159903, 	 136.15698124681043168493
5.73980000000000067928, 	 147.77863149295578182318, 	 143.92567595812622016638, 	 140.06883009923933514074
5.74089999999999989200, 	 151.75078100775422740298, 	 147.86071883888223510439, 	 143.96968116326721087717
5.74199999999999999289, 	 155.70521397647559069810, 	 151.78099183954196860213, 	 147.85867104905833002704
5.74310000000000009379, 	 159.64153154874139772801, 	 155.68595064947137984745, 	 151.73503311445696795090
5.74420000000000019469, 	 163.55922046506620404216, 	 159.57496559945022340798, 	 155.59797730936361404019
5.74530000000000029559, 	 167.45762462370601042494, 	 163.44727998109755162659, 	 159.44663364400383898101
5.74640000000000039648, 	 171.33596614296899929286, 	 167.30202268797859233018, 	 163.28004868831288831643
5.74750000000000049738, 	 175.19339288084546524260, 	 171.13825188364381801875, 	 167.09721523435453605089
5.74860000000000059828, 	 179.02903218941665386410, 	 174.95500871955900379362, 	 170.89711661769791817278
5.74970000000000069917, 	 182.84207559380618590694, 	 178.75130230174582379732, 	 174.67700199112877612606
5.75079999999999991189, 	 186.63231486341976506083, 	 182.52609178022493097160, 	 178.43615207272489442403
5.75190000000000001279, 	 190.39935654584877511297, 	 186.27934745033934405001, 	 182.17528658244850703340
5.75300000000000011369, 	 194.14275443449892577519, 	 190.01084500831086643302, 	 185.89439785100404378682
5.75410000000000021458, 	 197.86179622557628476898, 	 193.71997754020247839435, 	 189.59298567021878056948
5.75520000000000031548, 	 201.55554246557122155536, 	 197.40582201204230727853, 	 193.27017338809213242712
5.75630000000000041638, 	 205.22293700855001929995, 	 201.06727847805998976582, 	 196.92486384598188919881
5.75740000000000051728, 	 208.86291788918316569834, 	 204.70320420048685150505, 	 200.55587923860497312489
5.75850000000000061817, 	 212.47449110752401679747, 	 208.31250445562307049840, 	 204.16205744570919478065
5.75960000000000071907, 	 216.05675957605009784857, 	 211.89417324905804207447, 	 207.74230115498869508883
5.76069999999999993179, 	 219.60891777182646933397, 	 215.44729552981260667366, 	 211.29559018344573928516
5.76180000000000003268, 	 223.13022869631868161377, 	 218.97102836372044976088, 	 214.82097173347534635468
5.76290000000000013358, 	 226.61999672225647373125, 	 222.46457509809403063628, 	 218.31754037673096036087
5.76400000000000023448, 	 230.07754401450969794496, 	 225.92716105411770399769, 	 221.78441624977915580530
5.76510000000000033538, 	 233.50219370579907263163, 	 229.35801487946596921574, 	 225.22072638816899825542
5.76620000000000043627, 	 236.89325999162653602070, 	 232.75635653361351273816, 	 228.62559142265257605686
5.76730000000000053717, 	 240.25004427921052752026, 	 236.12139181843062374355, 	 231.99811874256332089317
5.76840000000000063807, 	 243.57183625091820999842, 	 239.45231267309938516519, 	 235.33740189580154833493
5.76949999999999985079, 	 246.85791847826612865902, 	 242.74830189992701434676, 	 238.64252499529445117332
5.77059999999999995168, 	 250.10757296237264313277, 	 246.00854045565586147859, 	 241.91257009604976246919
5.77170000000000005258, 	 253.32008786342734651953, 	 249.23221521921590237980, 	 245.14662524442110225209
5.77280000000000015348, 	 256.49476293248937963654, 	 252.41852543137622433278, 	 248.34379126437812601580
5.77390000000000025437, 	 259.63091277482521945785, 	 255.56668673785665646392, 	 251.50318617184396430275
5.77500000000000035527, 	 262.72786784781607138939, 	 258.67593267088119546315, 	 254.62394702164732507299
5.77610000000000045617, 	 265.78497369595140753518, 	 261.74551414339566690614, 	 257.70522995076208871978
5.77720000000000055707, 	 268.80158971599530559615, 	 264.77469845498183076415, 	 260.74620961162560206503
5.77830000000000065796, 	 271.77708763742020892096, 	 267.76276765958596115524, 	 263.74607777361563876184
5.77939999999999987068, 	 274.71085084696608191734, 	 270.70901831210937871219, 	 266.70404399309495602211
5.78049999999999997158, 	 277.60227515733180325697, 	 273.61276253199798702553, 	 269.61933683576654630087
5.78160000000000007248, 	 280.45076991089791818013, 	 276.47332930696057928799, 	 272.49120530187366284736
5.78270000000000017337, 	 283.25575955822660034755, 	 279.29006674780930552515, 	 275.31892196227033764444
5.78380000000000027427, 	 286.01668550420896508513, 	 282.06234392479780126450, 	 278.10178364388792715545
5.78490000000000037517, 	 288.73300487707103911816, 	 284.78954864687932513334, 	 280.83910794781945696741
5.78600000000000047606, 	 291.40418795095024506736, 	 287.47108507231359908474, 	 283.53023264866033059661
5.78710000000000057696, 	 294.02971960619487390431, 	 290.10637710800887134610, 	 286.17452259176138795738
5.78820000000000067786, 	 296.60910683078770944121, 	 292.69487873455454973737, 	 288.77138267328547271973
5.78929999999999989058, 	 299.14188834047843101871, 	 295.23608544823235888543, 	 291.32026925690132657110
5.79039999999999999147, 	 301.62764065037418959037, 	 297.72954092891421851164, 	 293.82069564959755325617
5.79150000000000009237, 	 304.06597768972687845235, 	 300.17483583291306104002, 	 296.27222904809985948305
5.79260000000000019327, 	 306.45654414006827437333, 	 302.57159944581047739121, 	 298.67448080121118891839
5.79370000000000029416, 	 308.79900570219456312770, 	 304.91948812759409292994, 	 301.02709428992801576896
5.79480000000000039506, 	 311.09304030705538934853, 	 307.21817510218284041912, 	 303.32973476768790987990
5.79590000000000049596, 	 313.33833310205005773241, 	 309.46734466198950030957, 	 305.58208381807992282120
5.79700000000000059686, 	 315.53457597876729323616, 	 311.66669152818906241009, 	 307.78383885714174539316
5.79810000000000069775, 	 317.68147060576802687137, 	 313.81592414894402054415, 	 309.93471636760239107389
5.79919999999999991047, 	 319.77873303979106367478, 	 315.91476978299192523991, 	 312.03445678793275419594
5.80030000000000001137, 	 321.82609805156067750431, 	 317.96297930724097113853, 	 314.08282912053306290545
5.80140000000000011227, 	 323.82332196666425261355, 	 319.96033041547116226866, 	 316.07963401037761741463
5.80250000000000021316, 	 325.77018363822656965567, 	 321.90662875550600574570, 	 318.02470484140297912745
5.80360000000000031406, 	 327.66648379817854674911, 	 323.80170723478750005597, 	 319.91790702163615378595
5.80470000000000041496, 	 329.51204335326968930531, 	 325.64542408244039961573, 	 321.75913597386880837803
5.80580000000000051585, 	 331.30670123419594119696, 	 327.43766032262891485516, 	 323.54831444001604268124
5.80690000000000061675, 	 333.05031227869426402322, 	 329.17831719738018136923, 	 325.28538962912512033654
5.80800000000000071765, 	 334.74274544099517925133, 	 330.86731388717419122258, 	 326.97033058057633070348
5.80909999999999993037, 	 336.38388244372737290178, 	 332.50458568997652264443, 	 328.60312594056580337565
5.81020000000000003126, 	 337.97361685715964085830, 	 334.09008267088972843339, 	 330.18378219915570070953
5.81130000000000013216, 	 339.51185351045882043763, 	 335.62376869601786211206, 	 331.71232232497800396231
5.81240000000000023306, 	 340.99850810433201786509, 	 337.10562071389887250916, 	 333.18878467134885568157
5.81350000000000033396, 	 342.43350689483878568353, 	 338.53562813957125854358, 	 334.61322200964951889546
5.81460000000000043485, 	 343.81678634444955378058, 	 339.91379222067143928143, 	 335.98570056537516848039
5.81570000000000053575, 	 345.14829267785250976885, 	 341.24012530980814972281, 	 337.30629897638976899543
5.81680000000000063665, 	 346.42798132549995671070, 	 342.51465001918313646456, 	 338.57510714519992234273
5.81789999999999984936, 	 347.65581627414445620161, 	 343.73739827483865383329, 	 339.79222499881387875575
5.81899999999999995026, 	 348.83176936714698967990, 	 344.90841031842660413531, 	 340.95776120596036662391
5.82010000000000005116, 	 349.95581960767447071703, 	 346.02773371669030666453, 	 342.07183191151671053376
5.82120000000000015206, 	 351.02795250936736692893, 	 347.09542242964550951001, 	 343.13455953886165161748
5.82230000000000025295, 	 352.04815952012762636514, 	 348.11153596727388048748, 	 344.14607168949083870757
5.82340000000000035385, 	 353.01643752278397414557, 	 349.07613863963547373714, 	 345.10650014429506882152
5.82450000000000045475, 	 353.93278839850637496056, 	 349.98929888480569161402, 	 346.01597995060427592762
5.82560000000000055564, 	 354.79721862937856258213, 	 350.85108864814776552521, 	 346.87464856874879615134
5.82670000000000065654, 	 355.60973891661302559442, 	 351.66158278598470587895, 	 347.68264504900685096800
5.82779999999999986926, 	 356.37036376511258595201, 	 352.42085840052334333450, 	 348.44010904523167937441
5.82889999999999997016, 	 357.07911083752679815007, 	 353.12899386738575913114, 	 349.14717951014898744688
5.83000000000000007105, 	 357.73600019278705985926, 	 353.78606752735913687502, 	 349.80399172932931151081
5.83110000000000017195, 	 358.34104625306889602143, 	 354.39214335203610062308, 	 350.41065357299243032685
5.83220000000000027285, 	 358.89424993589318546583, 	 354.94727076963408762822, 	 350.96726937382914002228
5.83330000000000037375, 	 359.39562540300687487616, 	 355.45151777661834557875, 	 351.47396751978698148378
5.83440000000000047464, 	 359.84520945055396623502, 	 355.90497413139217997013, 	 351.93089120871792374601
5.83550000000000057554, 	 360.24305204009544922883, 	 356.30774008493250448737, 	 352.33818840517363923937
5.83660000000000067644, 	 360.58920595382437568333, 	 356.65991573031976713537, 	 352.69600351935719118046
5.83769999999999988916, 	 360.88372048406790781883, 	 356.96159438916248518581, 	 353.00447164883291861770
5.83879999999999999005, 	 361.12663884049032958501, 	 357.21285950959179444908, 	 353.26371513299943671882
5.83990000000000009095, 	 361.31799784073416503816, 	 357.41378392664063312623, 	 353.47384232611858578821
5.84100000000000019185, 	 361.45782917424025981745, 	 357.56443107973586847947, 	 353.63494866064746702250
5.84210000000000029274, 	 361.54616175501200814324, 	 357.66485766418156799773, 	 353.74711946552929475729
5.84320000000000039364, 	 361.58302482808301192563, 	 357.71511743579526410031, 	 353.81043436563953719087
5.84430000000000049454, 	 361.56845152546014787731, 	 357.71526565799638319731, 	 353.82497235173747185399
5.84540000000000059543, 	 361.50248206147205110028, 	 357.66536305335978340736, 	 353.79081604826023976784
5.84650000000000069633, 	 361.38516554748741782532, 	 357.56547798521592085308, 	 353.70805380741290946389
5.84759999999999990905, 	 361.21655973798033301136, 	 357.41568607774570409674, 	 353.57677892546001885421
5.84870000000000000995, 	 360.99672870598061535929, 	 357.21606733084092866193, 	 353.39708621063834925735
5.84980000000000011084, 	 360.72573914702195452264, 	 356.96670160883866174117, 	 353.16906695272763272442
5.85090000000000021174, 	 360.40365642817198477132, 	 356.66766384827087676967, 	 352.89280375014857327187
5.85200000000000031264, 	 360.03054143311157986318, 	 356.31902015748505618831, 	 352.56836622058841612670
5.85310000000000041354, 	 359.60644896352744126489, 	 355.92082606491186425046, 	 352.19580987491769974440
5.85420000000000051443, 	 359.13142867520946310833, 	 355.47312735332803868005, 	 351.77517620702070644256
5.85530000000000061533, 	 358.60552615502308526629, 	 354.97596116981276281876, 	 351.30649417022578973047
5.85640000000000071623, 	 358.02878540991190448040, 	 354.42935923069637738081, 	 350.78978399877610172553
5.85749999999999992895, 	 357.40125197625144437552, 	 353.83335157029222273195, 	 350.22506123855856685623
5.85860000000000002984, 	 356.72297560254628479015, 	 353.18796982931371530867, 	 349.61234033930668374524
5.85970000000000013074, 	 355.99401207651914091912, 	 352.49324960706275078337, 	 348.95163734908436481419
5.86080000000000023164, 	 355.21442412891184403634, 	 351.74923176685967973754, 	 348.24297155387904467716
5.86190000000000033253, 	 354.38428156344468789030, 	 350.95596283156686467919, 	 347.48636616340462524022
5.86300000000000043343, 	 353.50366087281832960798, 	 350.11349474096749645469, 	 346.68184828744261949396
5.86410000000000053433, 	 352.57264459949425372542, 	 349.22188424220735214476, 	 345.82944842754096725912
5.86520000000000063523, 	 351.59132058284194499720, 	 348.28119206780894501208, 	 344.92919967162191596799
5.86629999999999984794, 	 350.55978135073519297293, 	 347.29148234216148694031, 	 343.98113733634767186231
5.86739999999999994884, 	 349.47812422870822501864, 	 346.25282294984646114244, 	 342.98529982221231193762
5.86850000000000004974, 	 348.34645244130638275237, 	 345.16528705670594945332, 	 341.94173055173189368361
5.86960000000000015064, 	 347.16487669826375395132, 	 344.02895503614735162046, 	 340.85047995458972991401
5.87070000000000025153, 	 345.93351628412358422793, 	 342.84391563446246209423, 	 339.71160633680113960509
5.87180000000000035243, 	 344.65249891836344886542, 	 341.61026561809580925910, 	 338.52517509328845335403
5.87290000000000045333, 	 343.32195936744568598442, 	 340.32810800087617053578, 	 337.29125660053830415563
5.87400000000000055422, 	 341.94203745873920752274, 	 338.99754967556617657465, 	 336.00992374106289162228
5.87510000000000065512, 	 340.51287640043352666908, 	 337.61869949969184290239, 	 334.68125009882976428344
5.87619999999999986784, 	 339.03462209773135782598, 	 336.19166759884740258713, 	 333.30530950778972965054
5.87729999999999996874, 	 337.50742369612538595902, 	 334.71656612309908496172, 	 331.88217711363091666499
5.87840000000000006963, 	 335.93143513210219452958, 	 333.19351118217707607982, 	 330.41193161407881007108
5.87950000000000017053, 	 334.30681717951330256255, 	 331.62262536183175143378, 	 328.89465805857508939880
5.88060000000000027143, 	 332.63373944155301842329, 	 330.00404019505788255628, 	 327.33045058979143959732
5.88170000000000037232, 	 330.91238187711053342355, 	 328.33789810591190416744, 	 325.71941463261197213797
5.88280000000000047322, 	 329.14293565725813550671, 	 326.62435358252190553685, 	 324.06166829000011375683
5.88390000000000057412, 	 327.32560331225158734014, 	 324.86357345196910273444, 	 322.35734261543768752745
5.88500000000000067502, 	 325.46059807473500313790, 	 323.05573616540999637436, 	 320.60658086388616538898
5.88609999999999988773, 	 323.54814247817944306007, 	 321.20103005845368215887, 	 318.80953662423064542963
5.88719999999999998863, 	 321.58846857457484702536, 	 319.29965532802947336677, 	 316.96637995777399510189
5.88830000000000008953, 	 319.58182503650965600173, 	 317.35183393657700889889, 	 315.07730929952725773546
5.88940000000000019043, 	 317.52848368597375383615, 	 315.35781556543139458881, 	 313.14255292836821809033
5.89050000000000029132, 	 315.42920476541678453941, 	 313.31780909173983218352, 	 311.16246158771696173062
5.89160000000000039222, 	 313.28958204867240056046, 	 311.23274293272538670863, 	 309.13666671178441447410
5.89270000000000049312, 	 311.10652998505332789136, 	 309.10277153783317771740, 	 307.06484286924103344063
5.89380000000000059401, 	 308.87778340142125443890, 	 306.92662612361851870446, 	 304.94664505125024334120
5.89490000000000069491, 	 306.60245206307439502780, 	 304.70375772363451005731, 	 302.78187678388286485642
5.89599999999999990763, 	 304.28072611764071098150, 	 302.43438368203891286612, 	 300.57074876821837960961
5.89710000000000000853, 	 301.91322513456640308505, 	 300.11922979646305975621, 	 298.31400448464597729981
5.89820000000000010942, 	 299.50076543515137927898, 	 297.75920983573138300926, 	 296.01254438365447185788
5.89930000000000021032, 	 297.04413820206889340625, 	 295.35519914949503572643, 	 293.66724210958909679903
5.90040000000000031122, 	 294.54400832805634991018, 	 292.90792623947237416360, 	 291.27883768227570726594
5.90150000000000041211, 	 292.00086480234267583000, 	 290.41789164367577313897, 	 288.84781387121518037020
5.90260000000000051301, 	 289.41504069041945967911, 	 287.88544030852585819957, 	 286.37457866882863299907
