x [cm], 	 0.69214285714285717077, 	 48.45000000000000284217, 	 96.20785714285715073402
0.00000000000000000000, 	 0.00000000000000000000, 	 0.00000000000000000000, 	 0.00000000000000000000
5.70020000000000059970, 	 -0.67979314487641373521, 	 0.14286973719570314478, 	 1.06576693268141542426
5.70130000000000070060, 	 -0.65042414331924358617, 	 0.15451965340450854458, 	 1.05846242133854961942
5.70239999999999991331, 	 -0.62083759521594372721, 	 0.16664168787533542582, 	 1.05139373301281935369
5.70350000000000001421, 	 -0.59106468120686928014, 	 0.17921746628902154863, 	 1.04456165441233639335
5.70460000000000011511, 	 -0.56113827987082320892, 	 0.19222663957568184023, 	 1.03796649319935196942
5.70570000000000021600, 	 -0.53109272760360637378, 	 0.20564698796662028712, 	 1.03160783818561019309
5.70680000000000031690, 	 -0.50096360053749011687, 	 0.21945453130236297623, 	 1.02548483939923351649
5.70790000000000041780, 	 -0.47078740609974079057, 	 0.23362364456210982233, 	 1.01959700396021646362
5.70900000000000051870, 	 -0.44060162663020785434, 	 0.24812716943231960531, 	 1.01394353719339402886
5.71010000000000061959, 	 -0.41044457740223805331, 	 0.26293652750992518863, 	 1.00852313132503335069
5.71119999999999983231, 	 -0.38035525243629186853, 	 0.27802181370859185838, 	 1.00333336911110282408
5.71229999999999993321, 	 -0.35037303637005901003, 	 0.29335188922554300550, 	 0.99837140278303160290
5.71340000000000003411, 	 -0.32053731528390255745, 	 0.30889451118466798585, 	 0.99363332967280937336
5.71450000000000013500, 	 -0.29088667451191985158, 	 0.32461645025983543178, 	 0.98911489298961163819
5.71560000000000023590, 	 -0.26145721420045642258, 	 0.34048358904844883144, 	 0.98481192965150332608
5.71670000000000033680, 	 -0.23227938159451508304, 	 0.35646105530502308900, 	 0.98071963511483406517
5.71780000000000043769, 	 -0.20337311145600550644, 	 0.37251337774513282319, 	 0.97683311952216411722
5.71890000000000053859, 	 -0.17474020014293961678, 	 0.38860465520609216439, 	 0.97314739058877008926
5.72000000000000063949, 	 -0.14635511917536522808, 	 0.40469876342054700302, 	 0.96965716328877271657
5.72109999999999985221, 	 -0.11815366582822604824, 	 0.42075963043561026566, 	 0.96635672388688920176
5.72219999999999995310, 	 -0.09001951863826752886, 	 0.43675163698786712008, 	 0.96323990411964743874
5.72330000000000005400, 	 -0.06177078536843371576, 	 0.45264020333474852542, 	 0.96030012686847043835
5.72440000000000015490, 	 -0.03314845419932627157, 	 0.46839261435301798864, 	 0.95753042989435444010
5.72550000000000025580, 	 -0.00380899264331869799, 	 0.48397997011448412596, 	 0.95492353661548268207
5.72660000000000035669, 	 0.02665882534727050113, 	 0.49938000623257144950, 	 0.95247193009043085166
5.72770000000000045759, 	 0.05875689706659485700, 	 0.51457742246852977708, 	 0.95016792845895037267
5.72880000000000055849, 	 0.09308213534943821088, 	 0.52956743878355960753, 	 0.94800377366025667669
5.72990000000000065938, 	 0.13029481203634094011, 	 0.54435944742330533153, 	 0.94597175576390091223
5.73099999999999987210, 	 0.17112150995710201373, 	 0.55898074871245129192, 	 0.94406440650621714639
5.73209999999999997300, 	 0.21668942486155898242, 	 0.57348062432332091998, 	 0.94227478367878336751
5.73320000000000007390, 	 0.26692091080727858854, 	 0.58793448767526057530, 	 0.94059685117473557092
5.73430000000000017479, 	 0.32327358159243918534, 	 0.60244794847864924225, 	 0.93902594958402696435
5.73540000000000027569, 	 0.38675673081314543289, 	 0.61716190650891267211, 	 0.93755931699607886198
5.73650000000000037659, 	 0.45803307501420537085, 	 0.63225663631192230429, 	 0.93619669149812645426
5.73760000000000047748, 	 0.53757072319603160793, 	 0.64794943446914421425, 	 0.93494103493832525498
5.73870000000000057838, 	 0.62612740178943404601, 	 0.66449852904284645305, 	 0.93379936394405071987
5.73980000000000067928, 	 0.72427009131501229877, 	 0.68220661093133738717, 	 0.93278360048553876638
5.74089999999999989200, 	 0.83248659183910167503, 	 0.70142036775152505346, 	 0.93191139045605853042
5.74199999999999999289, 	 0.95124040934706122208, 	 0.72252801250362730379, 	 0.93120731570170689473
5.74310000000000009379, 	 1.08093831198205680977, 	 0.74595624792355785804, 	 0.93070387918672892180
5.74420000000000019469, 	 1.22191980299907787533, 	 0.77216716449569622327, 	 0.93044257510779060372
5.74530000000000029559, 	 1.37444170600991699693, 	 0.80161710640007544093, 	 0.93047425510517245417
5.74640000000000039648, 	 1.53868076870798287104, 	 0.83472604979305475847, 	 0.93085962799539490042
5.74750000000000049738, 	 1.71473745393724685826, 	 0.87203263320584123441, 	 0.93167011776678487767
5.74860000000000059828, 	 1.90265364533521164070, 	 0.91407038482360192244, 	 0.93298819377990505064
5.74970000000000069917, 	 2.10241652034861514764, 	 0.96135799814760558579, 	 0.93490390914112786458
5.75079999999999991189, 	 2.31396692706002848894, 	 1.01440846003128903874, 	 0.93750011816775125073
5.75190000000000001279, 	 2.53721057288249252082, 	 1.07372387129119806204, 	 0.94047919037461724656
5.75300000000000011369, 	 2.77200333664513909326, 	 1.13978958612117131644, 	 0.94412951319796878380
5.75410000000000021458, 	 3.01815624803986759517, 	 1.21306844322598084140, 	 0.94935903246730846128
5.75520000000000031548, 	 3.27544128920585242426, 	 1.29399463923285629186, 	 0.95615839496371746176
5.75630000000000041638, 	 3.54359663761805920856, 	 1.38296876164501769679, 	 0.96435844616600163715
5.75740000000000051728, 	 3.82233147511945015040, 	 1.48035592402788718225, 	 0.97385263971743363243
5.75850000000000061817, 	 4.11132943287888430461, 	 1.58648418986413175524, 	 0.98483263187989422693
5.75960000000000071907, 	 4.41025202651531245124, 	 1.70164121044034377661, 	 0.99750568824763719000
5.76069999999999993179, 	 4.71874217559139008671, 	 1.82607011541035024749, 	 1.01204624922518959806
5.76180000000000003268, 	 5.03642765107175627293, 	 1.95996625904857579847, 	 1.02859378947502122514
5.76290000000000013358, 	 5.36292348966277643285, 	 2.10347549804106304094, 	 1.04722896026006462300
5.76400000000000023448, 	 5.69783456060797455223, 	 2.25669361446628036205, 	 1.06805157137976336479
5.76510000000000033538, 	 6.04075353952317239958, 	 2.41966623192739760384, 	 1.09119042110136077461
5.76620000000000043627, 	 6.39126359686773870550, 	 2.59238893272897907849, 	 1.11676881049426501846
5.76730000000000053717, 	 6.74894221975691976922, 	 2.77480764403190693912, 	 1.14489624317839178147
5.76840000000000063807, 	 7.11336343874053067537, 	 2.96681947523729450111, 	 1.17566755253212762433
5.76949999999999985079, 	 7.48409780267911628471, 	 3.16827403064133639177, 	 1.20916399250740913551
5.77059999999999995168, 	 7.86070936805224818045, 	 3.37897509944052742981, 	 1.24545440973968979392
5.77170000000000005258, 	 8.24276464195864910778, 	 3.59868263736570259681, 	 1.28459604542560601459
5.77280000000000015348, 	 8.62982734798166539747, 	 3.82711499290440348986, 	 1.32663498969481596923
5.77390000000000025437, 	 9.02145649990776021809, 	 4.06395129913554242762, 	 1.37160642483800043756
5.77500000000000035527, 	 9.41720568724692164153, 	 4.30883401625571860194, 	 1.41953478439760272245
5.77610000000000045617, 	 9.81662326260520323729, 	 4.56137164234817227282, 	 1.47043391474223428261
5.77720000000000055707, 	 10.21925260811845248554, 	 4.82114155998976734452, 	 1.52430728684883298740
5.77830000000000065796, 	 10.62463201340316842902, 	 5.08769297486235139161, 	 1.58114827766580856583
5.77939999999999987068, 	 11.03229431262902338062, 	 5.36054990777998074947, 	 1.64094052303040993657
5.78049999999999997158, 	 11.44176659686694996765, 	 5.63921420785435412171, 	 1.70366113825165976792
5.78160000000000007248, 	 11.85256901737737855740, 	 5.92316855821395815695, 	 1.76926256299189499366
5.78270000000000017337, 	 12.26421463176030179909, 	 6.21187944585236451189, 	 1.83767879927050969968
5.78380000000000027427, 	 12.67621273481634425195, 	 6.50480008518110164317, 	 1.90885412524034792092
5.78490000000000037517, 	 13.08806566284489925067, 	 6.80137324504574092288, 	 1.98273612059281068021
5.78600000000000047606, 	 13.49926971208169490524, 	 7.10103388589951034504, 	 2.05926845532339619638
5.78710000000000057696, 	 13.90931480067705905412, 	 7.40321169310663407259, 	 2.13838765319510537566
5.78820000000000067786, 	 14.31768417595430520350, 	 7.70733357427908050141, 	 2.22002256257865893119
5.78929999999999989058, 	 14.72385394845460382385, 	 8.01282609573138948633, 	 2.30409505564364947006
5.79039999999999999147, 	 15.12729836866799359996, 	 8.31911781455704968380, 	 2.39052108933290208270
5.79150000000000009237, 	 15.52748536509210453005, 	 8.62564145152256678273, 	 2.47921173592518062634
5.79260000000000019327, 	 15.92388066367443677507, 	 8.93183584359116267137, 	 2.57007405140895528461
5.79370000000000029416, 	 16.31594837358833771646, 	 9.23714775774306673384, 	 2.66301182254901247504
5.79480000000000039506, 	 16.70315341924385776906, 	 9.54103384548795041553, 	 2.75792676449601925626
5.79590000000000049596, 	 17.08496337787435237487, 	 9.84296501393935052704, 	 2.85471721579751447351
5.79700000000000059686, 	 17.46084942167048481565, 	 10.14243529951516364918, 	 2.95327991414373247636
5.79810000000000069775, 	 17.83028770486293268505, 	 10.43892195959104007841, 	 3.05350942016586168748
5.79919999999999991047, 	 18.19276108327341034965, 	 10.73192528028141445873, 	 3.15529932175209992806
5.80030000000000001137, 	 18.54776091456032460769, 	 11.02096699578858896018, 	 3.25854216009167885204
5.80140000000000011227, 	 18.89478880889824807809, 	 11.30558478678277900542, 	 3.36313108423117945733
5.80250000000000021316, 	 19.23335843876479245296, 	 11.58533346271810948735, 	 3.46895903613392242448
5.80360000000000031406, 	 19.56299743077708086503, 	 11.85978554863133460628, 	 3.57591654042673434688
5.80470000000000041496, 	 19.88324924015693895285, 	 12.12853161669236534692, 	 3.68389279440180317238
5.80580000000000051585, 	 20.19367496606999168307, 	 12.39118064348580894318, 	 3.79277632198482272941
5.80690000000000061675, 	 20.49385508317681114931, 	 12.64736044043021045979, 	 3.90245489599467543229
5.80800000000000071765, 	 20.78339107069949776019, 	 12.89671816469057574750, 	 4.01281642215708078680
5.80909999999999993037, 	 21.06190692328264901789, 	 13.13892065151526544753, 	 4.12374929297822490071
5.81020000000000003126, 	 21.32905053115284133014, 	 13.37365463119972375239, 	 4.23514295567795961972
5.81130000000000013216, 	 21.58449492066696606685, 	 13.60062693707346781480, 	 4.34688781595581197337
5.81240000000000023306, 	 21.82793934547681757863, 	 13.81956472487641285340, 	 4.45887511205632058875
5.81350000000000033396, 	 22.05911061191110889013, 	 14.03021568745395697420, 	 4.57099689782992513187
5.81460000000000043485, 	 22.27776298924742803820, 	 14.23234825346177068184, 	 4.68314610880895187961
5.81570000000000053575, 	 22.48368024730064007599, 	 14.42575176366189104726, 	 4.79521670756787177226
5.81680000000000063665, 	 22.67667507995576059443, 	 14.61023662327551519979, 	 4.90710398155459781577
5.81789999999999984936, 	 22.85658745911520739469, 	 14.78563443303972846365, 	 5.01870435071860487852
5.81899999999999995026, 	 23.02328543658688175810, 	 14.95179807718239572978, 	 5.12991556189546571431
5.82010000000000005116, 	 23.17666659111506533009, 	 15.10860176882749605909, 	 5.24063700529616660617
5.82120000000000015206, 	 23.31665880702622217768, 	 15.25594105431663294326, 	 5.35076993533028844041
5.82230000000000025295, 	 23.44322017410494751743, 	 15.39373276785780930709, 	 5.46021765596581243329
5.82340000000000035385, 	 23.55633855519778308008, 	 15.52191493940954991615, 	 5.56888569455742121761
5.82450000000000045475, 	 23.65603058331813812742, 	 15.64044666449063925029, 	 5.67668197401375440592
5.82560000000000055564, 	 23.74233936572820624633, 	 15.74930794211173790131, 	 5.78351698621291188118
5.82670000000000065654, 	 23.81533624629047096732, 	 15.84849948736638580726, 	 5.88930399087608069664
5.82779999999999986926, 	 23.87511876744989436361, 	 15.93804252659264797387, 	 5.99395929758077627980
5.82889999999999997016, 	 23.92180808819240311891, 	 16.01797855440989337694, 	 6.09740219122267568252
5.83000000000000007105, 	 23.95554825674875942809, 	 16.08836914878333956835, 	 6.19955509818036354375
5.83110000000000017195, 	 23.97651106950292998476, 	 16.14929624353981196805, 	 6.30034392927534536710
5.83220000000000027285, 	 23.98489151816172437748, 	 16.20085721166273984295, 	 6.39969817604588531168
5.83330000000000037375, 	 23.98090257580965456441, 	 16.24317018432321546584, 	 6.49755115282222828199
5.83440000000000047464, 	 23.96477366742138670475, 	 16.27637105945713358324, 	 6.59384040312389441141
5.83550000000000057554, 	 23.93675033156337050855, 	 16.30061324186582183415, 	 6.68850750162963159084
5.83660000000000067644, 	 23.89709433336613031429, 	 16.31606681557880023092, 	 6.78149745895822508857
5.83769999999999988916, 	 23.84608326319577642494, 	 16.32291780087753707562, 	 6.87275892089519491179
5.83879999999999999005, 	 23.78400947248686136959, 	 16.32136739480797515967, 	 6.96224455123006435997
5.83990000000000009095, 	 23.71117867362359277195, 	 16.31163110769087154495, 	 7.04991126993178607307
5.84100000000000019185, 	 23.62790850132478936985, 	 16.29393782513695043690, 	 7.13572036821153776742
5.84210000000000029274, 	 23.53451391502652967347, 	 16.26852882178729942098, 	 7.21963754586452122197
5.84320000000000039364, 	 23.43130920648074777546, 	 16.23565620526465025364, 	 7.30163290058086200673
5.84430000000000049454, 	 23.31860615898895261466, 	 16.19557347329112673151, 	 7.38168088638398689483
5.84540000000000059543, 	 23.19668101228843326567, 	 16.14852425352868436903, 	 7.45976025001636244838
5.84650000000000069633, 	 23.06586686070047065300, 	 16.09489304302380219269, 	 7.53585507779078511703
5.84759999999999990905, 	 22.92662882357786813259, 	 16.03491811084178308988, 	 7.60995625620462412542
5.84870000000000000995, 	 22.77944531836250874335, 	 15.96887450996790924762, 	 7.68204992519630724956
5.84980000000000011084, 	 22.62474427402137422405, 	 15.89705598039462763893, 	 7.75212290840720275042
5.85090000000000021174, 	 22.46291192684465443108, 	 15.81976328335781012413, 	 7.82016951545267779977
5.85200000000000031264, 	 22.29431153763393780309, 	 15.73729992672604893755, 	 7.88619179516564283716
5.85310000000000041354, 	 22.11929680800269082397, 	 15.64997177441265563402, 	 7.95019774861654404674
5.85420000000000051443, 	 21.93821871575368120943, 	 15.55808635722272015300, 	 8.01219967543595146253
5.85530000000000061533, 	 21.75142793779480854255, 	 15.46195197459007530938, 	 8.07221323416694680475
5.85640000000000071623, 	 21.55927490331940887813, 	 15.36187654945635472359, 	 8.13025650733020377459
5.85749999999999992895, 	 21.36210110594216615709, 	 15.25816640700951154486, 	 8.18634944464760039295
5.85860000000000002984, 	 21.16028455532774543713, 	 15.15112505232941408906, 	 8.24051410471655820800
5.85970000000000013074, 	 20.95423478930502270146, 	 15.04105201255513435399, 	 8.29277456602402907038
5.86080000000000023164, 	 20.74429625586203229659, 	 14.92824176547474124277, 	 8.34315668345394456651
5.86190000000000033253, 	 20.53078029473467935873, 	 14.81298282296830315374, 	 8.39168783787232364091
5.86300000000000043343, 	 20.31398535653984893656, 	 14.69555699520027403082, 	 8.43839700586855379072
5.86410000000000053433, 	 20.09420814644016317629, 	 14.57623876747068436543, 	 8.48331516893793668999
5.86520000000000063523, 	 19.87174416455287584427, 	 14.45529467157942882238, 	 8.52647501944537467011
5.86629999999999984794, 	 19.64688458063534426401, 	 14.33298247464628971670, 	 8.56791070082938510666
5.86739999999999994884, 	 19.41991476901522162279, 	 14.20955036222668432799, 	 8.60765710517358506593
5.86850000000000004974, 	 19.19111287808816612710, 	 14.08523622793272878084, 	 8.64575012168038625759
5.86960000000000015064, 	 18.96074872070200356688, 	 13.96026705862630024058, 	 8.68222547386538678893
5.87070000000000025153, 	 18.72908281213584658076, 	 13.83485853620072703052, 	 8.71712027405127187762
5.87180000000000035243, 	 18.49636478954284868337, 	 13.70921471190384544059, 	 8.75047250850193591987
5.87290000000000045333, 	 18.26283528808174239089, 	 13.58352773474463681680, 	 8.78232005278600880160
5.87400000000000055422, 	 18.02872531248921816882, 	 13.45797768688123952074, 	 8.81270127043258000299
5.87510000000000065512, 	 17.79425473382869071770, 	 13.33273255399867629478, 	 8.84165461438819377804
5.87619999999999986784, 	 17.55963191682284829653, 	 13.20794820835650718038, 	 8.86921843160982881216
5.87729999999999996874, 	 17.32505376490055581939, 	 13.08376844426149432365, 	 8.89543065654665987552
5.87840000000000006963, 	 17.09070527758127511220, 	 12.96032617295285582770, 	 8.92032863652499585783
5.87950000000000017053, 	 16.85676062130552566032, 	 12.83774242375477392386, 	 8.94394856597829246425
5.88060000000000027143, 	 16.62338170203324594354, 	 12.71612356826851630842, 	 8.96632549652831656317
5.88170000000000037232, 	 16.39071630734462559076, 	 12.59556612975088363271, 	 8.98749405769898856988
5.88280000000000047322, 	 16.15890451904149927032, 	 12.47615525250177981320, 	 9.00748818569979725623
5.88390000000000057412, 	 15.92807718807042327569, 	 12.35796487132943966003, 	 9.02634082539079862784
5.88500000000000067502, 	 15.69837806757352183240, 	 12.24105801984030961194, 	 9.04408367371396693102
5.88609999999999988773, 	 15.46998894819265224498, 	 12.12548713735065675223, 	 9.06074705599679752765
5.88719999999999998863, 	 15.24298728303319450106, 	 12.01129440327314590320, 	 9.07635982367842153451
5.88830000000000008953, 	 15.01743044734524268335, 	 11.89851216970551917029, 	 9.09094971341431978828
5.88940000000000019043, 	 14.79337326010825393041, 	 11.78716352543557199795, 	 9.10454360996599554312
5.89050000000000029132, 	 14.57086863835599288564, 	 11.67726286383050471329, 	 9.11716659012959595998
5.89160000000000039222, 	 14.34996557195759514514, 	 11.56881624641543737653, 	 9.12884272563373855292
5.89270000000000049312, 	 14.13070726730419579553, 	 11.46182165600389168958, 	 9.13959493292792224395
5.89380000000000059401, 	 13.91312999826797458525, 	 11.35626924938704540580, 	 9.14944487309134402153
5.89490000000000069491, 	 13.69726256456479518420, 	 11.25214166845571561737, 	 9.15841291772411558725
5.89599999999999990763, 	 13.48312621266570943135, 	 11.14941443271308152418, 	 9.16651817929500900561
5.89710000000000000853, 	 13.27073482248284008733, 	 11.04805639782757786804, 	 9.17377850482144019395
5.89820000000000010942, 	 13.06009506152200394524, 	 10.94803026958233083121, 	 9.18021047427668435148
5.89930000000000021032, 	 12.85120665752480384469, 	 10.84929313435097419926, 	 9.18582933462602113650
5.90040000000000031122, 	 12.64406281194006709256, 	 10.75179699493220653039, 	 9.19064950901182164955
5.90150000000000041211, 	 12.43865064280989685130, 	 10.65548930456412080048, 	 9.19468412987340855125
5.90260000000000051301, 	 12.23495162375722067338, 	 10.56031348915873202543, 	 9.19794498809175387066
5.90370000000000061391, 	 12.03294201535166330075, 	 10.46620945938725277813, 	 9.20044266426530832348
5.90480000000000071481, 	 11.83259329359168532392, 	 10.37311410903629926850, 	 9.20218663266243730448
5.90589999999999992752, 	 11.63387258122601686239, 	 10.28096179654001929293, 	 9.20318532083096840779
5.90700000000000002842, 	 11.43674050215868653879, 	 10.18968480866405279528, 	 9.20344614125632531909
5.90810000000000012932, 	 11.24115673929228798045, 	 10.09921380039811467100, 	 9.20297561665903174344
5.90920000000000023022, 	 11.04707698371772828239, 	 10.00947817191087985123, 	 9.20177945603914082540
5.91030000000000033111, 	 10.85445617535077644789, 	 9.92040645377211482980, 	 9.19986203137496794113
5.91140000000000043201, 	 10.66371360170460569350, 	 9.83192680469990420988, 	 9.19722683121099926495
