x [cm], 	 0.69214285714285717077, 	 48.45000000000000284217, 	 96.20785714285715073402
0.00000000000000000000, 	 0.00000000000000000000, 	 0.00000000000000000000, 	 0.00000000000000000000
5.70020000000000059970, 	 0.00887339267920706116, 	 1.34196070152653956775, 	 2.72021469530735249265
5.70130000000000070060, 	 0.03350824012252388157, 	 1.34791747037152798150, 	 2.70878505854251683260
5.70239999999999991331, 	 0.05838994291413048682, 	 1.35419885514271265414, 	 2.69754473171935993392
5.70350000000000001421, 	 0.08349806037467794040, 	 1.36080382418340639639, 	 2.68649573168870547946
5.70460000000000011511, 	 0.10881139000002103268, 	 1.36773013907207419138, 	 2.67563978444002659174
5.70570000000000021600, 	 0.13430796521548526989, 	 1.37497433034606530988, 	 2.66497829246338779896
5.70680000000000031690, 	 0.15996508005922702167, 	 1.38253167687015277032, 	 2.65451241876419352650
5.70790000000000041780, 	 0.18575927405549624849, 	 1.39039619753768262100, 	 2.64424308131716312431
5.70900000000000051870, 	 0.21166633708603407871, 	 1.39856064003751967562, 	 2.63417095833628867041
5.71010000000000061959, 	 0.23766137997090194811, 	 1.40701648248512345418, 	 2.62429649309367629684
5.71119999999999983231, 	 0.26371892578518663086, 	 1.41575393382874215042, 	 2.61461991102634794260
5.71229999999999993321, 	 0.28981302856847956928, 	 1.42476194744309148099, 	 2.60514122637951883732
5.71340000000000003411, 	 0.31591748795335705680, 	 1.43402823502587639659, 	 2.59586022632821133982
5.71450000000000013500, 	 0.34200649681193934226, 	 1.44353929379613488138, 	 2.58677646395474702956
5.71560000000000023590, 	 0.36805543299351023423, 	 1.45328043619773361605, 	 2.57788921313657048984
5.71670000000000033680, 	 0.39404309625805639117, 	 1.46323582918574590650, 	 2.56919743039117332017
5.71780000000000043769, 	 0.41995539847651436327, 	 1.47338855088499309787, 	 2.56069974808799827315
5.71890000000000053859, 	 0.44579080866794362770, 	 1.48372066674107783157, 	 2.55239436461141444568
5.72000000000000063949, 	 0.47156755510351056060, 	 1.49421333991185045775, 	 2.54427943732574135538
5.72109999999999985221, 	 0.49733256263092984195, 	 1.50484699126560572680, 	 2.53635274786827746851
5.72219999999999995310, 	 0.52317196719923197978, 	 1.51560155907348859117, 	 2.52861154004115862293
5.72330000000000005400, 	 0.54922181072997844353, 	 1.52645691669978389449, 	 2.52105222948966956054
5.72440000000000015490, 	 0.57567769880889685385, 	 1.53739350785953243772, 	 2.51367124781065065520
5.72550000000000025580, 	 0.60280261040450855425, 	 1.54839327555526873326, 	 2.50646586472336352358
5.72660000000000035669, 	 0.63093174980816013608, 	 1.55944095129584270332, 	 2.49943309223134546571
5.72770000000000045759, 	 0.66047434437445173838, 	 1.57052577483131639013, 	 2.49256934858476508765
5.72880000000000055849, 	 0.69189868509835583676, 	 1.58164364973750415366, 	 2.48587066854644556102
5.72990000000000065938, 	 0.72573938760967970918, 	 1.59279971246126672568, 	 2.47933294184463548504
5.73099999999999987210, 	 0.76259073108152808373, 	 1.60401127029204304542, 	 2.47295209544742888852
5.73209999999999997300, 	 0.80309040875477055721, 	 1.61531099353447871181, 	 2.46672426482205642273
5.73320000000000007390, 	 0.84790293467462918287, 	 1.62675021571256306352, 	 2.46064600667184141258
5.73430000000000017479, 	 0.89769942682626424624, 	 1.63840225889511081903, 	 2.45471458491164717941
5.73540000000000027569, 	 0.95291157933328685115, 	 1.65036558097083729812, 	 2.44892834404488057842
5.73650000000000037659, 	 1.01544591500166014875, 	 1.66276654037434989952, 	 2.44328717304207332361
5.73760000000000047748, 	 1.08353128923816233176, 	 1.67576160877505797586, 	 2.43779305578237215357
5.73870000000000057838, 	 1.15910042679468672233, 	 1.68953905748450972091, 	 2.43245069844749606247
5.73980000000000067928, 	 1.24347507754407682334, 	 1.70432076350867967030, 	 2.42726821848383833569
5.74089999999999989200, 	 1.33696130830475867768, 	 1.72035987829556802353, 	 2.42225787401395775689
5.74199999999999999289, 	 1.43980429903382778356, 	 1.73793710001917856012, 	 2.41743680949141115377
5.74310000000000009379, 	 1.55250354057996764467, 	 1.75736270985211895379, 	 2.41282779130193381079
5.74420000000000019469, 	 1.67536792676082457731, 	 1.77897877819778238440, 	 2.40845988795506560365
5.74530000000000029559, 	 1.80861766741726803787, 	 1.80315725580127961258, 	 2.40436896927260601586
5.74640000000000039648, 	 1.95248455994886760401, 	 1.83029574979975517834, 	 2.40059824283290312863
5.74750000000000049738, 	 2.10714293638983551915, 	 1.86081244388549427171, 	 2.39719874471552341078
5.74860000000000059828, 	 2.27274388815947769871, 	 1.89514056905908190309, 	 2.39422925899597061061
5.74970000000000069917, 	 2.44936909551061621215, 	 1.93372289596975432957, 	 2.39175666018917398858
5.75079999999999991189, 	 2.63702943805733491800, 	 1.97700658430465425752, 	 2.38985588183110930771
5.75190000000000001279, 	 2.83568270807329358973, 	 2.02543657594853376835, 	 2.38860968342515134211
5.75300000000000011369, 	 3.04525325455932227570, 	 2.07935405674795203979, 	 2.38810909616773781039
5.75410000000000021458, 	 3.26563024784168787207, 	 2.13911767962517007646, 	 2.38845193974618563715
5.75520000000000031548, 	 3.49667814673183574570, 	 2.20524025289303748920, 	 2.38974222645377043506
5.75630000000000041638, 	 3.73824006383661044950, 	 2.27810586751858989984, 	 2.39208919419408694296
5.75740000000000051728, 	 3.99012344448764322280, 	 2.35807827769250089034, 	 2.39560830932050761177
5.75850000000000061817, 	 4.25210394375009492762, 	 2.44549312982722444332, 	 2.40040921610493196425
5.75960000000000071907, 	 4.52392964446018552849, 	 2.54065621033253830063, 	 2.40652438083815845005
5.76069999999999993179, 	 4.80532505194957160199, 	 2.64384100888941819818, 	 2.41327728357383186619
5.76180000000000003268, 	 5.09599360772698872779, 	 2.75528656484188472220, 	 2.42102219889242720186
5.76290000000000013358, 	 5.39562044509743810039, 	 2.87519522651856496154, 	 2.43129222226832597542
5.76400000000000023448, 	 5.70387564486334408542, 	 3.00372906395992922413, 	 2.44465096469026876846
5.76510000000000033538, 	 6.02041651066226357614, 	 3.14100758001972080180, 	 2.46024883016516637824
5.76620000000000043627, 	 6.34489027295753071911, 	 3.28711104052419278432, 	 2.47784559924309855106
5.76730000000000053717, 	 6.67693141888863639366, 	 3.44208497553173708994, 	 2.49730045114970344855
5.76840000000000063807, 	 7.01616392441826075554, 	 3.60594014916117000524, 	 2.51891030917036973236
5.76949999999999985079, 	 7.36220483355639032652, 	 3.77864950168465529856, 	 2.54288779208070181426
5.77059999999999995168, 	 7.71466657927585064414, 	 3.96014527287728412830, 	 2.56931222971461181714
5.77170000000000005258, 	 8.07315790793170506845, 	 4.15031846406301152541, 	 2.59817221629452443921
5.77280000000000015348, 	 8.43728209487365887753, 	 4.34902028802319673417, 	 2.62948421704252988107
5.77390000000000025437, 	 8.80663858760725126729, 	 4.55606417370917959886, 	 2.66333649086465307221
5.77500000000000035527, 	 9.18082814460779772503, 	 4.77122745790708435720, 	 2.69981429728697186476
5.77610000000000045617, 	 9.55944773494687538573, 	 4.99425308785867105854, 	 2.73897655535072814814
5.77720000000000055707, 	 9.94208982987558798072, 	 5.22485157084138318595, 	 2.78086379625462010168
5.77830000000000065796, 	 10.32834223010370067186, 	 5.46270321211206422163, 	 2.82550079899038264486
5.77939999999999987068, 	 10.71778840419796452466, 	 5.70746060751909389808, 	 2.87289750260921383784
5.78049999999999997158, 	 11.11000773483027082023, 	 5.95875114740764644239, 	 2.92305309141435287756
5.78160000000000007248, 	 11.50457554869185550217, 	 6.21617941657281658507, 	 2.97595786503548920265
5.78270000000000017337, 	 11.90106299647796284091, 	 6.47932951891375186193, 	 3.03159427164438399771
5.78380000000000027427, 	 12.29903690149192740932, 	 6.74776734634429686821, 	 3.08993750743449435703
5.78490000000000037517, 	 12.69805860113019946311, 	 7.02104280763311816571, 	 3.15095974657558475229
5.78600000000000047606, 	 13.09768425185255225074, 	 7.29869202723921350895, 	 3.21459797060986174344
5.78710000000000057696, 	 13.49746769072960006497, 	 7.58023952284253255129, 	 3.28078610650477253685
5.78820000000000067786, 	 13.89695758745096298981, 	 7.86520034471068818505, 	 3.34947163420795712696
5.78929999999999989058, 	 14.29569854862749167523, 	 8.15308209483506551862, 	 3.42060637020185520640
5.79039999999999999147, 	 14.69323083669890017688, 	 8.44338684047104592878, 	 3.49413912315169694622
5.79150000000000009237, 	 15.08909014838160089766, 	 8.73561300523674866270, 	 3.57001243878151619526
5.79260000000000019327, 	 15.48280694534466306322, 	 9.02925727047756510046, 	 3.64816196767935219114
5.79370000000000029416, 	 15.87391154493366229872, 	 9.32381646286359710984, 	 3.72851704282066620522
5.79480000000000039506, 	 16.26193003939573955563, 	 9.61878936510159832096, 	 3.81100164037393973615
5.79590000000000049596, 	 16.64638708553451706962, 	 9.91367836662550061533, 	 3.89553533607924284965
5.79700000000000059686, 	 17.02680706753884365412, 	 10.20799100473949394541, 	 3.98203411616335190004
5.79810000000000069775, 	 17.40271514924068441132, 	 10.50124146116452727995, 	 4.07041102819741063001
5.79919999999999991047, 	 17.77363921237717647728, 	 10.79295250872234035455, 	 4.16057725814313794643
5.80030000000000001137, 	 18.13911073239944471425, 	 11.08266032315385274387, 	 4.25244144296955628448
5.80140000000000011227, 	 18.49866561493082883771, 	 11.36991709844130404861, 	 4.34591037071584906926
5.80250000000000021316, 	 18.85184537556841632977, 	 11.65425728977948161003, 	 4.44088869469162439430
5.80360000000000031406, 	 19.19819847604899365479, 	 11.93523971901524305395, 	 4.53728000711688572721
5.80470000000000041496, 	 19.53728164798052446827, 	 12.21243968792786560584, 	 4.63498773087669935222
5.80580000000000051585, 	 19.86866122872632089980, 	 12.48544559228173866927, 	 4.73391627724063202010
5.80690000000000061675, 	 20.19191453191708518489, 	 12.75385994168439651730, 	 4.83396851442196240356
5.80800000000000071765, 	 20.50663123049677238896, 	 13.01729993422853226548, 	 4.93504540869713625995
5.80909999999999993037, 	 20.81241472314936657995, 	 13.27539774688072427011, 	 5.03704682646762424980
5.81020000000000003126, 	 21.10888346090430189861, 	 13.52780089875362889984, 	 5.13987185159286585900
5.81130000000000013216, 	 21.39567221751382675166, 	 13.77417267094409858430, 	 5.24341897790331579188
5.81240000000000023306, 	 21.67243328979026628645, 	 14.01419260737494276725, 	 5.34758644848676834016
5.81350000000000033396, 	 21.93883761588161007694, 	 14.24755686227533324484, 	 5.45227322660550672850
5.81460000000000043485, 	 22.19457594021285018471, 	 14.47397843597903133173, 	 5.55737908981378936346
5.81570000000000053575, 	 22.43935955558598038806, 	 14.69318740642694187670, 	 5.66280456341825111366
5.81680000000000063665, 	 22.67292119742368683433, 	 14.90493115706257576392, 	 5.76845088892077573206
5.81789999999999984936, 	 22.89501668195892847280, 	 15.10897459321140523514, 	 5.87422013101150408687
5.81899999999999995026, 	 23.10542343902056927618, 	 15.30510034401330621279, 	 5.98001542297902677348
5.82010000000000005116, 	 23.30394053326664405290, 	 15.49310895262397913541, 	 6.08574031471241561064
5.82120000000000015206, 	 23.49038999407003203146, 	 15.67281902257316694715, 	 6.19129929995827499312
5.82230000000000025295, 	 23.66461809801778670703, 	 15.84406731552124014684, 	 6.29659811533236535297
5.82340000000000035385, 	 23.82649606227142413672, 	 16.00670882039742792813, 	 6.40154386856958979024
5.82450000000000045475, 	 23.97592017301575140209, 	 16.16061678889707309281, 	 6.50604515249795944953
5.82560000000000055564, 	 24.11281152687254092370, 	 16.30568273821992875128, 	 6.61001216445249806242
5.82670000000000065654, 	 24.23711562012683629064, 	 16.44181642662327291760, 	 6.71335683448985509614
5.82779999999999986926, 	 24.34880224636095746860, 	 16.56894580497835534061, 	 6.81599296075526428496
5.82889999999999997016, 	 24.44786355822111545422, 	 16.68701694322125206327, 	 6.91783634905842426122
5.83000000000000007105, 	 24.53431520485350958438, 	 16.79599392855028483496, 	 7.01880495389502723214
5.83110000000000017195, 	 24.60819648070622989167, 	 16.89585873893087608621, 	 7.11881907569953842341
5.83220000000000027285, 	 24.66956804769269950839, 	 16.98661108742573944141, 	 7.21780152606070490862
5.83330000000000037375, 	 24.71851091021871837938, 	 17.06826821182217202022, 	 7.31567754047705598452
5.83440000000000047464, 	 24.75512615941862648583, 	 17.14086463307873486883, 	 7.41237497360893726750
5.83550000000000057554, 	 24.77953927229948405397, 	 17.20445203048050331063, 	 7.50782451359082614317
5.83660000000000067644, 	 24.79189654094928130235, 	 17.25909942346348913134, 	 7.60195988248869891635
5.83769999999999988916, 	 24.79236063133935630276, 	 17.30488811762295497942, 	 7.69471782738616205677
5.83879999999999999005, 	 24.78110925381648144139, 	 17.34191769807284089211, 	 7.78603833331329120426
5.83990000000000009095, 	 24.75833489612990234718, 	 17.37030296013591978976, 	 7.87586490835632435648
5.84100000000000019185, 	 24.72424497732959736140, 	 17.39017353106727981071, 	 7.96414465994006626204
5.84210000000000029274, 	 24.67906172847902013245, 	 17.40167332573182790156, 	 8.05082782293189147538
5.84320000000000039364, 	 24.62302154997124503666, 	 17.40495982327295365621, 	 8.13587117693302452892
5.84430000000000049454, 	 24.55637402795919399523, 	 17.40020346451021282519, 	 8.21923235167425403347
5.84540000000000059543, 	 24.47938084712684414512, 	 17.38758698000808422535, 	 8.30086347569110394318
5.84650000000000069633, 	 24.39231472725607474672, 	 17.36730467049164516880, 	 8.38072100546876441740
5.84759999999999990905, 	 24.29545192059313762911, 	 17.33956165657997416929, 	 8.45876971211910699822
5.84870000000000000995, 	 24.18905662349564877900, 	 17.30457292642554278927, 	 8.53498168610281560120
5.84980000000000011084, 	 24.07341613942578462115, 	 17.26255792965083912804, 	 8.60933435248856326893
5.85090000000000021174, 	 23.94876912591840323330, 	 17.21373152801285044688, 	 8.68180899776044157079
5.85200000000000031264, 	 23.81538176181864940872, 	 17.15834896175299206789, 	 8.75238998528529421606
5.85310000000000041354, 	 23.67361615598264990012, 	 17.09674463071344874265, 	 8.82106440968480143283
5.85420000000000051443, 	 23.52390702254910692659, 	 17.02907683102639069261, 	 8.88782190556574036577
5.85530000000000061533, 	 23.36666026954110364500, 	 16.95561336492640336360, 	 8.95265454786540892940
5.85640000000000071623, 	 23.20224011952726073105, 	 16.87661461233408743965, 	 9.01555696512328275105
5.85749999999999992895, 	 23.03098260893637316826, 	 16.79234473275496597466, 	 9.07652666233290794651
5.85860000000000002984, 	 22.85320967553159476893, 	 16.70307076078235652972, 	 9.13556435744148487288
5.85970000000000013074, 	 22.66923816790559342849, 	 16.60906234253503299669, 	 9.19267413850777082018
5.86080000000000023164, 	 22.47938423418862896597, 	 16.51059114492918666883, 	 9.24786338219163361885
5.86190000000000033253, 	 22.28396476256632396939, 	 16.40793004744023875219, 	 9.30114249280109994800
5.86300000000000043343, 	 22.08328696580593586418, 	 16.30135216679185461430, 	 9.35252456061755133021
5.86410000000000053433, 	 21.87773398051333018088, 	 16.19112983514715153888, 	 9.40202508514311219301
5.86520000000000063523, 	 21.66766737346643267870, 	 16.07753360455732405399, 	 9.44966170956411133375
5.86629999999999984794, 	 21.45339663709715338769, 	 15.96083132110644875468, 	 9.49545388410741075802
5.86739999999999994884, 	 21.23520989038637196700, 	 15.84128736651805446911, 	 9.53942279484490818220
5.86850000000000004974, 	 21.01338938096308694981, 	 15.71916207072286120194, 	 9.58159165044498095654
5.86960000000000015064, 	 20.78821669494024249047, 	 15.59471111320715941417, 	 9.62198529731607443694
5.87070000000000025153, 	 20.55997231469318009545, 	 15.46818488525035029113, 	 9.66063000596810006471
5.87180000000000035243, 	 20.32893495051406418384, 	 15.33982775449350910435, 	 9.69755366995134870933
5.87290000000000045333, 	 20.09538310883003831009, 	 15.20987743035890282783, 	 9.73278493175951631144
5.87400000000000055422, 	 19.85958981613695684132, 	 15.07856427242739627559, 	 9.76635377647909663779
5.87510000000000065512, 	 19.62182186688631091442, 	 14.94611069676766135217, 	 9.79829129400371101610
5.87619999999999986784, 	 19.38233922693503075152, 	 14.81273068356432176529, 	 9.82862906484997722600
5.87729999999999996874, 	 19.14139339952166452008, 	 14.67862942596227426861, 	 9.85739945509447679228
5.87840000000000006963, 	 18.89922948553176240694, 	 14.54400314622739642800, 	 9.88463651629440143154
5.87950000000000017053, 	 18.65608490663728957770, 	 14.40903891998031483013, 	 9.91037480743354137758
5.88060000000000027143, 	 18.41218780903947305205, 	 14.27391446945808084479, 	 9.93464846454826755462
5.88170000000000037232, 	 18.16775710642491148405, 	 14.13879807549431966152, 	 9.95749194337235898900
5.88280000000000047322, 	 17.92300394526572659970, 	 14.00384856617019124769, 	 9.97894039305986879640
5.88390000000000057412, 	 17.67813002588049542396, 	 13.86921526122169012751, 	 9.99902931225812885430
5.88500000000000067502, 	 17.43332745198764754946, 	 13.73503791689194208914, 	 10.01779275626795318033
5.88609999999999988773, 	 17.18877891095797139087, 	 13.60144673048133689974, 	 10.03526392106136277960
5.88719999999999998863, 	 16.94473094851951699980, 	 13.46856255999637852483, 	 10.05147608119299285079
5.88830000000000008953, 	 16.70137799169896908325, 	 13.33649988349888815264, 	 10.06646268128794474706
5.88940000000000019043, 	 16.45884350603150281245, 	 13.20535793354759768192, 	 10.08025724105588594171
5.89050000000000029132, 	 16.21724150303507272497, 	 13.07522948218450942193, 	 10.09289208931928882862
5.89160000000000039222, 	 15.97668674160074786528, 	 12.94619863550742699942, 	 10.10439761486277454594
5.89270000000000049312, 	 15.73729292694400072605, 	 12.81834086183585164065, 	 10.11480291701528777537
5.89380000000000059401, 	 15.49916979815855810898, 	 12.69172311663438534879, 	 10.12413658787987813525
5.89490000000000069491, 	 15.26242116719055985641, 	 12.56640386608090942389, 	 10.13242706638790657792
5.89599999999999990763, 	 15.02714374324947499417, 	 12.44243313689915630960, 	 10.13970272030387675954
5.89710000000000000853, 	 14.79342645795092714422, 	 12.31985263730654622805, 	 10.14599161856869535825
5.89820000000000010942, 	 14.56135010270464391624, 	 12.19869596167896474981, 	 10.15132035653658348906
5.89930000000000021032, 	 14.33098726681360446378, 	 12.07898887719182745570, 	 10.15571350731602429107
5.90040000000000031122, 	 14.10240243556922479229, 	 11.96074965001464107672, 	 10.15919567547775770322
5.90150000000000041211, 	 13.87565218387810084266, 	 11.84398939504428049929, 	 10.16179104925683418514
5.90260000000000051301, 	 13.65078543356864315683, 	 11.72871243976729438430, 	 10.16352274877730899050
5.90370000000000061391, 	 13.42784369715132619660, 	 11.61491668921079423171, 	 10.16441250510952265529
5.90480000000000071481, 	 13.20686121318729355778, 	 11.50259402074306080976, 	 10.16448064317689947700
5.90589999999999992752, 	 12.98786517167300580411, 	 11.39173067902020797248, 	 10.16374627885283565831
5.90700000000000002842, 	 12.77087601584751652695, 	 11.28230766021401798582, 	 10.16222746972127666254
5.90810000000000012932, 	 12.55590776125753293968, 	 11.17430108884904704780, 	 10.15994131598892202817
5.90920000000000023022, 	 12.34296831936773664040, 	 11.06768258757411871329, 	 10.15690394950857644574
5.91030000000000033111, 	 12.13205885324588528817, 	 10.96241964582804762074, 	 10.15313057512303274166
5.91140000000000043201, 	 11.92317330932981711555, 	 10.85847597535966002624, 	 10.14863530071480646200
