x [cm], 	 0.25592592592592589007, 	 34.54999999999999715783, 	 68.84407407407405798949
0.00000000000000000000, 	 0.00000000000000000000, 	 0.00000000000000000000, 	 0.00000000000000000000
5.70020000000000059970, 	 -10.03205869941315064864, 	 -6.06876255895653926586, 	 -0.18150893680663293672
5.70130000000000070060, 	 -9.61695470176316469235, 	 -5.77362143492915702581, 	 -0.17072119841326627299
5.70239999999999991331, 	 -9.20108608554023987836, 	 -5.47752091183886324899, 	 -0.15992117964426003085
5.70350000000000001421, 	 -8.78452906361594898499, 	 -5.18066925726445060008, 	 -0.14911467486408844230
5.70460000000000011511, 	 -8.36596740367938984662, 	 -4.88327545783858418815, 	 -0.13830750203282479727
5.70570000000000021600, 	 -7.94116942064748521091, 	 -4.58554922757620531115, 	 -0.12750551670365500856
5.70680000000000031690, 	 -7.50282881329143869209, 	 -4.28770100135311782452, 	 -0.11671462501445796500
5.70790000000000041780, 	 -7.03751478972511357313, 	 -3.98994191039832379886, 	 -0.10594079586649901570
5.70900000000000051870, 	 -6.53282812533671819466, 	 -3.69248372209296826796, 	 -0.09519007235363421970
5.71010000000000061959, 	 -5.99108226905980956190, 	 -3.39553865272732968705, 	 -0.08446858242663508876
5.71119999999999983231, 	 -5.41645198511145409270, 	 -3.09931875363396169831, 	 -0.07378254873480673270
5.71229999999999993321, 	 -4.81419627709772601776, 	 -2.80403420321135010695, 	 -0.06313829756509345414
5.71340000000000003411, 	 -4.18995015313627927611, 	 -2.50988941691476208362, 	 -0.05253810665481523090
5.71450000000000013500, 	 -3.55031592116248351232, 	 -2.21707723530962930170, 	 -0.04200813779257655395
5.71560000000000023590, 	 -2.90072369215308523138, 	 -1.92576130309837489918, 	 -0.03157824327179865193
5.71670000000000033680, 	 -2.24479428686375248603, 	 -1.63606472152250437269, 	 -0.02124275184762179636
5.71780000000000043769, 	 -1.58423638123072252348, 	 -1.34804929909353199413, 	 -0.01099221731514303524
5.71890000000000053859, 	 -0.91981419900302063830, 	 -1.06169600547844722449, 	 -0.00138369206171440827
5.72000000000000063949, 	 -0.25188771913920754431, 	 -0.77688842726660378712, 	 0.00558835521157304872
5.72109999999999985221, 	 0.41925190558378006012, 	 -0.49340206271243147729, 	 0.01283865058822543717
5.72219999999999995310, 	 1.09330478339483661010, 	 -0.21090128045195508100, 	 0.02390192992250835327
5.72330000000000005400, 	 1.76995893189959296876, 	 0.07105566031564616858, 	 0.03577573156605307059
5.72440000000000015490, 	 2.44890376016473254595, 	 0.35300560657991719715, 	 0.04717511069477140634
5.72550000000000025580, 	 3.12984149112766996126, 	 0.63557534929677506064, 	 0.05761764211297203120
5.72660000000000035669, 	 3.81248169608564557720, 	 0.91943151509905751695, 	 0.06762410622622268275
5.72770000000000045759, 	 4.49651659589659757899, 	 1.20522040936128660427, 	 0.07739299969829840919
5.72880000000000055849, 	 5.18159177118606795176, 	 1.49360821820749833932, 	 0.08685599522966244712
5.72990000000000065938, 	 5.86726143082122320038, 	 1.78524082928507543677, 	 0.09600985674306102002
5.73099999999999987210, 	 6.55296922238203105593, 	 2.08072333710766432802, 	 0.10496361252497768413
5.73209999999999997300, 	 7.23805883801536786848, 	 2.38060402577310403771, 	 0.11375175743987879506
5.73320000000000007390, 	 7.92181281438524731442, 	 2.68536237289942159023, 	 0.12236517485826814422
5.73430000000000017479, 	 8.60349290396009713788, 	 2.99540075363393620833, 	 0.13082368880754252638
5.73540000000000027569, 	 9.28237976190089320028, 	 3.31103964215612522892, 	 0.13916263602842754432
5.73650000000000037659, 	 9.95779848754020946444, 	 3.63251592501479514397, 	 0.14741938911603325035
5.73760000000000047748, 	 10.62913434405556500906, 	 3.95998385804289121381, 	 0.15562844456224644851
5.73870000000000057838, 	 11.29583291018318291776, 	 4.29351813740315879642, 	 0.16382458697431884209
5.73980000000000067928, 	 11.95739706919396105889, 	 4.63311854347665796894, 	 0.17204525873290074656
5.74089999999999989200, 	 12.61337663988692270323, 	 4.97871564239879571545, 	 0.18033205922415865285
5.74199999999999999289, 	 13.26335666618640374281, 	 5.33017709133470241056, 	 0.18873116397300707114
5.74310000000000009379, 	 13.90695637621769265024, 	 5.68731417693451479778, 	 0.19729340234319941993
5.74420000000000019469, 	 14.54382707409726371850, 	 6.04988830805095911813, 	 0.20607202695266632619
5.74530000000000029559, 	 15.17364847778287284541, 	 6.41761726982211744286, 	 0.21512020759234351530
5.74640000000000039648, 	 15.79612483890846874601, 	 6.79018111740163643475, 	 0.22448916726692180745
5.74750000000000049738, 	 16.41098191258596017406, 	 7.16722764274636592319, 	 0.23422833577496959823
5.74860000000000059828, 	 17.01796493717374048060, 	 7.54837738739570340840, 	 0.24438309399044927384
5.74970000000000069917, 	 17.61683779113700154539, 	 7.93322819994734818039, 	 0.25499391677591864980
5.75079999999999991189, 	 18.20738326737387069443, 	 8.32135935085967304303, 	 0.26609570189404624374
5.75190000000000001279, 	 18.78940381017937610864, 	 8.71233522412762972920, 	 0.27771679984528463425
5.75300000000000011369, 	 19.36272223955263882544, 	 9.10570860914407376185, 	 0.28987794957756940484
5.75410000000000021458, 	 19.92718262776180182527, 	 9.50102361757857849511, 	 0.30259160272845042616
5.75520000000000031548, 	 20.48265118141961593778, 	 9.89781824992670422603, 	 0.31586158428343302784
5.75630000000000041638, 	 21.02901684231179046947, 	 10.29562663618349738215, 	 0.32968302367484919602
5.75740000000000051728, 	 21.56619145468978970825, 	 10.69398097603965247515, 	 0.34404250537827441025
5.75850000000000061817, 	 22.09410949276273683495, 	 11.09241321431088245220, 	 0.35891840057189583479
5.75960000000000071907, 	 22.61272742812897718068, 	 11.49045648080222115084, 	 0.37428134892312259208
5.76069999999999993179, 	 23.12202283375939515508, 	 11.88764626070438268357, 	 0.39009486325803566231
5.76180000000000003268, 	 23.62199331013403025281, 	 12.28351901912281007867, 	 0.40631603149950451526
5.76290000000000013358, 	 24.11265530481967545029, 	 12.67761317470703552601, 	 0.42289646904097122349
5.76400000000000023448, 	 24.59404287867916139021, 	 13.06947180152880783055, 	 0.43978442419259894391
5.76510000000000033538, 	 25.06620645521664059174, 	 13.45864874165483193735, 	 0.45692196425582387587
5.76620000000000043627, 	 25.52921157561558729299, 	 13.84470417393535868200, 	 0.47424580972925800548
5.76730000000000053717, 	 25.98313767052940903568, 	 14.22720408728330632186, 	 0.49169112223379501936
5.76840000000000063807, 	 26.42807685086171076705, 	 14.60572051556419026497, 	 0.50919293167479984241
5.76949999999999985079, 	 26.86413271339793951142, 	 14.97983169152831628423, 	 0.52668643650203073037
5.77059999999999995168, 	 27.29141911335459624866, 	 15.34912222367921152966, 	 0.54410750270333008149
5.77170000000000005258, 	 27.71006009994563612509, 	 15.71318332121441940785, 	 0.56139277743911053520
5.77280000000000015348, 	 28.12018618954152771039, 	 16.07161308954288969630, 	 0.57847938585427449709
5.77390000000000025437, 	 28.52192891141238817454, 	 16.42401691273825292683, 	 0.59530650186489930675
5.77500000000000035527, 	 28.91541792381465469930, 	 16.77000793384227961269, 	 0.61181610293057009375
5.77610000000000045617, 	 29.30078991410244171334, 	 17.10920764128823989836, 	 0.62795321214986854486
5.77720000000000055707, 	 29.67819311138990912013, 	 17.44124656357056579736, 	 0.64366817407713250443
5.77830000000000065796, 	 30.04778398857128252075, 	 17.76576507014189942879, 	 0.65891215305864903051
5.77939999999999987068, 	 30.40972296704676480772, 	 18.08241427318158045523, 	 0.67363811172778720326
5.78049999999999997158, 	 30.76414570274181414788, 	 18.39085702072630823523, 	 0.68780317452257078159
5.78160000000000007248, 	 31.11118530928458980611, 	 18.69076896493293915569, 	 0.70136930277947218126
5.78270000000000017337, 	 31.45099598634271842457, 	 18.98183968614342731485, 	 0.71430331825108750454
5.78380000000000027427, 	 31.78371979926521007087, 	 19.26377385376500228631, 	 0.72657673843625292243
5.78490000000000037517, 	 32.10948691579134361973, 	 19.53629240656769638917, 	 0.73816558682525779123
5.78600000000000047606, 	 32.42841604097087326863, 	 19.79913373672400211944, 	 0.74905022247035379923
5.78710000000000057696, 	 32.74061385364518628194, 	 20.05205486147760396420, 	 0.75921518894470874095
5.78820000000000067786, 	 33.04617319976937039883, 	 20.29483256367628740691, 	 0.76864931487951571043
5.78929999999999989058, 	 33.34517348637515254950, 	 20.52726448089654098794, 	 0.77734829620109802129
5.79039999999999999147, 	 33.63767272016057319206, 	 20.74917012370885771588, 	 0.78531676853373832969
5.79150000000000009237, 	 33.92369954330771264495, 	 20.96039180535935742000, 	 0.79255324532816784355
5.79260000000000019327, 	 34.20326000760016427193, 	 21.16079546669073252474, 	 0.79905140960302611930
5.79370000000000029416, 	 34.47634425956854187234, 	 21.35027138138683611146, 	 0.80480928200465762234
5.79480000000000039506, 	 34.74291786237702694962, 	 21.52873472791787889946, 	 0.80983270152499631234
5.79590000000000049596, 	 35.00292166960014839105, 	 21.69612601601571810761, 	 0.81413431775816769154
5.79700000000000059686, 	 35.25627528419060041642, 	 21.85241135664963607610, 	 0.81773145314986694920
5.79810000000000069775, 	 35.50287861761233898505, 	 21.99758256497663921891, 	 0.82064390601705894390
5.79919999999999991047, 	 35.74261255182553753684, 	 22.13165708644316964637, 	 0.82289296267065958901
5.80030000000000001137, 	 35.97533794666533424333, 	 22.25467773820648886840, 	 0.82450129140132133454
5.80140000000000011227, 	 36.20089469000713933156, 	 22.36671226137169909975, 	 0.82549270815450981331
5.80250000000000021316, 	 36.41910079765547436637, 	 22.46785268367252541566, 	 0.82589248933030157129
5.80360000000000031406, 	 36.62975092772094143356, 	 22.55821449670241563012, 	 0.82572651439716748811
5.80470000000000041496, 	 36.83261602533847423047, 	 22.63793565613844904760, 	 0.82502567073329935443
5.80580000000000051585, 	 37.02744286728540856757, 	 22.70717541714445886214, 	 0.82382321541375769236
5.80690000000000061675, 	 37.21395729729088230897, 	 22.76611301994640612634, 	 0.82214651028426566359
5.80800000000000071765, 	 37.39186819488354274199, 	 22.81494624228797718501, 	 0.82001815327525218180
5.80909999999999993037, 	 37.56086967726592007466, 	 22.85388983631503379002, 	 0.81746530286084895245
5.81020000000000003126, 	 37.72064227689728710402, 	 22.88317386744698112011, 	 0.81451651109428568898
5.81130000000000013216, 	 37.87085385029745765451, 	 22.90304197206563685540, 	 0.81120160938514851434
5.81240000000000023306, 	 38.01116073434488384919, 	 22.91374954954990528222, 	 0.80755140371299571900
5.81350000000000033396, 	 38.14120978940989203920, 	 22.91556190204061849158, 	 0.80359639982959263360
5.81460000000000043485, 	 38.26064094068232890322, 	 22.90875227463029162323, 	 0.79936335357140231306
5.81570000000000053575, 	 38.36908988831768141381, 	 22.89359870891059145492, 	 0.79487885247010015011
5.81680000000000063665, 	 38.46619105225796886316, 	 22.87037627913619886044, 	 0.79017051053289133478
5.81789999999999984936, 	 38.55157979243345067744, 	 22.83937887040522696225, 	 0.78526546105717676127
5.81899999999999995026, 	 38.62489463706520353981, 	 22.80091268474854970805, 	 0.78019011585326347724
5.82010000000000005116, 	 38.68577987972891918389, 	 22.75526280752394470142, 	 0.77497019157839308612
5.82120000000000015206, 	 38.73388821296954631634, 	 22.70269178910892193812, 	 0.76963000532918968144
5.82230000000000025295, 	 38.76888326515941685102, 	 22.64347319438173045114, 	 0.76419305753214483712
5.82340000000000035385, 	 38.79044201288914450743, 	 22.57787652514742759990, 	 0.75868136439152644712
5.82450000000000045475, 	 38.79825707384841848580, 	 22.50616233390234199874, 	 0.75311504767201964405
5.82560000000000055564, 	 38.79203887937320160972, 	 22.42858137079917213441, 	 0.74751226266693848732
5.82670000000000065654, 	 38.77151779777157258877, 	 22.34537317787717469741, 	 0.74188942534618362856
5.82779999999999986926, 	 38.73644590344689220274, 	 22.25676483846206465955, 	 0.73626147693122023785
5.82889999999999997016, 	 38.68659840982931541475, 	 22.16296986309035688123, 	 0.73064217601484360287
5.83000000000000007105, 	 38.62177289336361951655, 	 22.06418720824144230619, 	 0.72504371002788159384
5.83110000000000017195, 	 38.54176340017976087893, 	 21.96060042598856298923, 	 0.71947657799967834613
5.83220000000000027285, 	 38.44641256146797303472, 	 21.85237693697077432375, 	 0.71394979550215287301
5.83330000000000037375, 	 38.33554627543860249261, 	 21.73966741060920071504, 	 0.70847086985614415866
5.83440000000000047464, 	 38.20890701173661341272, 	 21.62260517715646201964, 	 0.70304574193352797895
5.83550000000000057554, 	 38.06652633596752366429, 	 21.50130714498153139402, 	 0.69767873631966714765
5.83660000000000067644, 	 37.90857241014911949151, 	 21.37587700647397426224, 	 0.69237223360243127512
5.83769999999999988916, 	 37.73516722579260829207, 	 21.24639702074031433199, 	 0.68712697558950552867
5.83879999999999999005, 	 37.54639042354637723520, 	 21.11293168261800090590, 	 0.68194216043758570933
5.83990000000000009095, 	 37.34232043434810321969, 	 20.97552851675718343927, 	 0.67681512575368485418
5.84100000000000019185, 	 37.12305163236430161078, 	 20.83421858328164333329, 	 0.67174142904704292611
5.84210000000000029274, 	 36.88869064223580096495, 	 20.68901702344517090637, 	 0.66671514278493326788
5.84320000000000039364, 	 36.63945484003993868782, 	 20.53992372042577230218, 	 0.66172903676323258093
5.84430000000000049454, 	 36.37570195700568120856, 	 20.38692409139641981142, 	 0.65677468235097602456
5.84540000000000059543, 	 36.09766966944516752847, 	 20.22999002322894668282, 	 0.65184246759189923281
5.84650000000000069633, 	 35.80556321579609857508, 	 20.06908094894492933236, 	 0.64692163467964436396
5.84759999999999990905, 	 35.49960828741117779828, 	 19.90414504474188106542, 	 0.64200035006693467743
5.84870000000000000995, 	 35.18006477130150244648, 	 19.73512051899765040730, 	 0.63706581574629750353
5.84980000000000011084, 	 34.84722360717643852013, 	 19.56193696655747515933, 	 0.63210441590209964779
5.85090000000000021174, 	 34.50165507638287465397, 	 19.38451676989227934200, 	 0.62710172170155087379
5.85200000000000031264, 	 34.14381831338366879436, 	 19.20277653314417420916, 	 0.62204264579599843898
5.85310000000000041354, 	 33.77399759286136315950, 	 19.01662853277820630638, 	 0.61691173015242395383
5.85420000000000051443, 	 33.39251446217743080069, 	 18.82598216406446667293, 	 0.61169319067995864270
5.85530000000000061533, 	 32.99973765487568755361, 	 18.63074536276716841598, 	 0.60637051290047272456
5.85640000000000071623, 	 32.59607252153220002810, 	 18.43082598923463422125, 	 0.60092679209923183237
5.85749999999999992895, 	 32.18195181620057354621, 	 18.22613317413050637583, 	 0.59534528235873196422
5.85860000000000002984, 	 31.75782959753631118360, 	 18.01657863188330566118, 	 0.58960950701357439652
5.85970000000000013074, 	 31.32417564934668163801, 	 17.80207794197554704851, 	 0.58370331785823836857
5.86080000000000023164, 	 30.88147127779898326594, 	 17.58255178683984709664, 	 0.57761102932710761682
5.86190000000000033253, 	 30.43019987201777709629, 	 17.35792712943214510801, 	 0.57131749680229737542
5.86300000000000043343, 	 29.97085225903284566584, 	 17.12813831576425371850, 	 0.56480782220567926633
5.86410000000000053433, 	 29.50392717348043447601, 	 16.89312809423544692322, 	 0.55806806674774578347
5.86520000000000063523, 	 29.02992039348861297299, 	 16.65284855078510162230, 	 0.55108537181467220911
5.86629999999999984794, 	 28.54932581435521044000, 	 16.40726196469375253173, 	 0.54384778205775974325
5.86739999999999994884, 	 28.06263421537736135747, 	 16.15634159293808380653, 	 0.53634423956762089514
5.86850000000000004974, 	 27.57033156876964596904, 	 15.90007238961361224483, 	 0.52856474726124902386
5.86960000000000015064, 	 27.07289765454833840863, 	 15.63845166372291117796, 	 0.52050055130728478670
5.87070000000000025153, 	 26.57080291747391598278, 	 15.37148967698793100567, 	 0.51214426780990340848
5.87180000000000035243, 	 26.06451012972120295785, 	 15.09921018247741208995, 	 0.50348995390374040593
5.87290000000000045333, 	 25.55447384390424048206, 	 14.82165090362008719183, 	 0.49453314687525062876
5.87400000000000055422, 	 25.04113620036226350862, 	 14.53886395170945888822, 	 0.48527097437593996743
5.87510000000000065512, 	 24.52492882852151723228, 	 14.25091617850219272157, 	 0.47570195714860369351
5.87619999999999986784, 	 24.00626952218568277431, 	 13.95788945902125455234, 	 0.46582605283915762273
5.87729999999999996874, 	 23.48556188230940477979, 	 13.65988090005771127267, 	 0.45564489875567071309
5.87840000000000006963, 	 22.96319455193356162681, 	 13.35700297230185107367, 	 0.44516177623040509292
5.87950000000000017053, 	 22.43954009739708155280, 	 13.04938356491060780229, 	 0.43438150529425584301
5.88060000000000027143, 	 21.91495399696286128233, 	 12.73716596066661388420, 	 0.42331026461444842823
5.88170000000000037232, 	 21.38977408488132780917, 	 12.42050872969659636169, 	 0.41195571899608646183
5.88280000000000047322, 	 20.86432119730128320612, 	 12.09958554029030430854, 	 0.40032728550014806679
5.88390000000000057412, 	 20.33889810253483787506, 	 11.77458488631108046718, 	 0.38843526494126018322
5.88500000000000067502, 	 19.81378831940900653308, 	 11.44570973170061733981, 	 0.37629092563574928487
5.88609999999999988773, 	 19.28926763303658020732, 	 11.11317707346822558634, 	 0.36390687015576400620
5.88719999999999998863, 	 18.76559552816642906237, 	 10.77721742535628912663, 	 0.35129713817437058232
5.88830000000000008953, 	 18.24301627688643279157, 	 10.43807422520748495742, 	 0.33847706845347469429
5.88940000000000019043, 	 17.72175870078139325869, 	 10.09600316974495726186, 	 0.32546308250524430550
5.89050000000000029132, 	 17.20203667969772354240, 	 9.75127148066469828791, 	 0.31227249084427427528
5.89160000000000039222, 	 16.68404883268011218433, 	 9.40415710581157959780, 	 0.29892334876349180295
5.89270000000000049312, 	 16.16797974140100890850, 	 9.05494786002716267603, 	 0.28543435123773369666
5.89380000000000059401, 	 15.65400174510092767832, 	 8.70394051202398344458, 	 0.27182474808240525421
5.89490000000000069491, 	 15.14227619010581982195, 	 8.35143982580244248481, 	 0.25811426484649430124
5.89599999999999990763, 	 14.63295497155467650430, 	 7.99775756788147695886, 	 0.24432302183081405778
5.89710000000000000853, 	 14.12618259081346394623, 	 7.64321149158774204579, 	 0.23047144889108545085
5.89820000000000010942, 	 13.62209618350578743673, 	 7.28812430506226238691, 	 0.21658019656167604161
5.89930000000000021032, 	 13.12082239446429809959, 	 6.93282262744563215762, 	 0.20267004510591393740
5.90040000000000031122, 	 12.62247433418186481902, 	 6.57763594512332350206, 	 0.18876181316577186897
5.90150000000000041211, 	 12.12715157961342349324, 	 6.22289561028744397930, 	 0.17487629889560438179
5.90260000000000051301, 	 11.63494324697113313505, 	 5.86893409490959694352, 	 0.16103417016355150992
5.90370000000000061391, 	 11.14593303728219098048, 	 5.51608666984177276049, 	 0.14725571768557813024
5.90480000000000071481, 	 10.66020375660758112701, 	 5.16468371467330644720, 	 0.13356099190045037095
5.90589999999999992752, 	 10.17783923248622635072, 	 4.81504416759775732970, 	 0.11996969798321194256
5.90700000000000002842, 	 9.69892211745082022389, 	 4.46749144174325341083, 	 0.10650116807105072803
5.90810000000000012932, 	 9.22353681176252848672, 	 4.12234454603563360564, 	 0.09317472788973382714
5.90920000000000023022, 	 8.75176776351010410337, 	 3.77991716930460119883, 	 0.08000900764603618986
5.91030000000000033111, 	 8.28369637517840473606, 	 3.44051675872969386916, 	 0.06702082473154614972
