x [cm], 	 0.40000000000000002220, 	 2.00000000000000000000, 	 3.60000000000000008882
0.00000000000000000000, 	 0.00000000000000000000, 	 0.00000000000000000000, 	 0.00000000000000000000
5.70020000000000059970, 	 4.29539413616510845628, 	 6.39389593340809714306, 	 8.52114170800947867690
5.70130000000000070060, 	 5.44141926513690243894, 	 6.98062362706789674149, 	 8.82031590474920612621
5.70239999999999991331, 	 8.00452877573597376681, 	 8.93528983586931602190, 	 10.27616545881014076258
5.70350000000000001421, 	 11.71750143502363883385, 	 12.17474942946336113891, 	 12.99528330327384040288
5.70460000000000011511, 	 16.16657762149676358376, 	 16.28108582799778503158, 	 16.60522668844461335880
5.70570000000000021600, 	 21.02421707377770587755, 	 20.93100323926433503630, 	 20.82962326883798809263
5.70680000000000031690, 	 25.97898949427104398069, 	 25.71347469080739145397, 	 25.22840643933413673494
5.70790000000000041780, 	 30.75927929594177356876, 	 30.30885996562598094783, 	 29.55277509157327386902
5.70900000000000051870, 	 35.21065618551308062933, 	 34.60532033816665631321, 	 33.68276582771802196703
5.71010000000000061959, 	 39.41252245902555273460, 	 38.63968291791965015136, 	 37.59512416695091019392
5.71119999999999983231, 	 43.46444511810975086519, 	 42.53845849199113615668, 	 41.40092249772081345327
5.71229999999999993321, 	 47.48131682111082341180, 	 46.41815611207757541479, 	 45.18983341388700836205
5.71340000000000003411, 	 51.53531326710975690730, 	 50.33573431860880731392, 	 48.99869858172625924908
5.71450000000000013500, 	 55.64375614150622340048, 	 54.30809359260545221559, 	 52.84584434258454876954
5.71560000000000023590, 	 59.79526661481470029003, 	 58.32545344028198286424, 	 56.72843464924071099631
5.71670000000000033680, 	 63.96770515992687222706, 	 62.36651266315017494435, 	 60.63182006979263860558
5.71780000000000043769, 	 68.13951586425264395075, 	 66.40916098980106596628, 	 64.53775016048099644195
5.71890000000000053859, 	 72.29222099721458505428, 	 70.43128165726926681600, 	 68.42767763479493225987
5.72000000000000063949, 	 76.41298245541196365593, 	 74.42129439383721489776, 	 72.29106904016573764693
5.72109999999999985221, 	 80.50323096524674326702, 	 78.38016835179088559471, 	 76.12653337301804867820
5.72219999999999995310, 	 84.57072616094562533817, 	 82.31658262964207040113, 	 79.94295844553225549589
5.72330000000000005400, 	 88.62782704936755351355, 	 86.24531109720440724686, 	 83.75595738970775983034
5.72440000000000015490, 	 92.68749527948246225151, 	 90.18197735415351701249, 	 87.58171472219876818599
5.72550000000000025580, 	 96.75900384749191118772, 	 94.13789320318350917205, 	 91.43184801424743568532
5.72660000000000035669, 	 100.84557345798069150078, 	 98.11735252290510800321, 	 95.31099342193461154693
5.72770000000000045759, 	 104.94463878751591323635, 	 102.11796328358406071857, 	 99.21726031482403129758
5.72880000000000055849, 	 109.05000704106923592462, 	 106.13307038905951174002, 	 103.14451462840789019992
5.72990000000000065938, 	 113.15453875314094034366, 	 110.15473124997551224169, 	 107.08510720155062756476
5.73099999999999987210, 	 117.25220499883008073994, 	 114.17601269071884928508, 	 111.03200978449515901048
5.73209999999999997300, 	 121.33903064506898772379, 	 118.19209610254475251168, 	 114.97993401532271207088
5.73320000000000007390, 	 125.41304155407475207085, 	 122.20031331709223820781, 	 118.92551711280377446656
5.73430000000000017479, 	 129.47364098893532968759, 	 126.19954977257339123753, 	 122.86691052841634075321
5.73540000000000027569, 	 133.52084811007583198261, 	 130.18946112764592726307, 	 126.80313251075278913049
5.73650000000000037659, 	 137.55468458071413806465, 	 134.16981229954387799808, 	 130.73346983422223388516
5.73760000000000047748, 	 141.57483443597539007897, 	 138.14008937452086911435, 	 134.65709144942982788962
5.73870000000000057838, 	 145.58057106753341258809, 	 142.09939304774511015239, 	 138.57290687794696282253
5.73980000000000067928, 	 149.57086797615781392778, 	 146.04653544034005108188, 	 142.47961702535084782539
5.74089999999999989200, 	 153.54458575813222864781, 	 149.98022737549698035764, 	 146.37585934121167952071
5.74199999999999999289, 	 157.50064312678244959898, 	 153.89925670077349195708, 	 150.26035850072500466013
5.74310000000000009379, 	 161.43811958888292679148, 	 157.80259763419709884147, 	 154.13202234481596519799
5.74420000000000019469, 	 165.35627642085080424295, 	 161.68943289067198065823, 	 157.98996104512056604108
5.74530000000000029559, 	 169.25451286407286488611, 	 165.55910455968438554919, 	 161.83344053754319702421
5.74640000000000039648, 	 173.13228962513031206072, 	 169.41102762429773065378, 	 165.66179953502850707991
5.74750000000000049738, 	 176.98905193131972168885, 	 173.24460145366424512758, 	 169.47436258167871869773
5.74860000000000059828, 	 180.82417466990077059563, 	 177.05914482783691710210, 	 173.27037390117214954444
5.74970000000000069917, 	 184.63693884527978639198, 	 180.85386575244709206345, 	 177.04896395258862185074
5.75079999999999991189, 	 188.42653665027685860878, 	 184.62786390250371937327, 	 180.80914772626266540101
5.75190000000000001279, 	 192.19209509701028082418, 	 188.38015526826791301573, 	 184.54984624932492920379
5.75300000000000011369, 	 195.93270653875097764285, 	 192.10970593772501047169, 	 188.26991832479691879598
5.75410000000000021458, 	 199.64745532953790529973, 	 195.81546266827561453283, 	 191.96819082992749372352
5.75520000000000031548, 	 203.33543504463787598979, 	 199.49637383254011524514, 	 195.64348114249682453192
5.75630000000000041638, 	 206.99575539207882002302, 	 203.15139912798474597366, 	 199.29460920192536832474
5.75740000000000051728, 	 210.62754097580040024695, 	 206.77950999383836006018, 	 202.92040043289512141200
5.75850000000000061817, 	 214.22992556608974723531, 	 210.37968457425597534893, 	 206.51968287727146389443
5.75960000000000071907, 	 217.80204559140764786207, 	 213.95090138615231012409, 	 210.09128255682537655957
5.76069999999999993179, 	 221.34303565415805792327, 	 217.49213491734209924289, 	 213.63402020104922485189
5.76180000000000003268, 	 224.85202726050422938897, 	 221.00235459316888864123, 	 217.14671085589276344763
5.76290000000000013358, 	 228.32815058310112021900, 	 224.48052709976661844848, 	 220.62816668279478449222
5.76400000000000023448, 	 231.77053841385705368339, 	 227.92562128374413532583, 	 224.07720239827210662042
5.76510000000000033538, 	 235.17833112594885847102, 	 231.33661429571512258008, 	 227.49264200953700765240
5.76620000000000043627, 	 238.55068141209713417084, 	 234.71249756122742269326, 	 230.87332547456404086006
5.76730000000000053717, 	 241.88675800435490259588, 	 238.05228167898701485683, 	 234.21811444699793014479
5.76840000000000063807, 	 245.18574819769469286257, 	 241.35500003266230351073, 	 237.52589691317277242888
5.76949999999999985079, 	 248.44685960787668932426, 	 244.61971164392289779244, 	 240.79559127664902007382
5.77059999999999995168, 	 251.66932171257835193501, 	 247.84550372904405435293, 	 244.02615001413903428329
5.77170000000000005258, 	 254.85244574519967386550, 	 251.03146948083158918053, 	 247.21509443827306995445
5.77280000000000015348, 	 257.99612893322165518839, 	 254.17666747506385149791, 	 250.36142435560373087355
5.77390000000000025437, 	 261.09997568996720929135, 	 257.28098852489614500882, 	 253.46570140290313588594
5.77500000000000035527, 	 264.16347899264843590572, 	 260.34407439847717569137, 	 256.52770307550110828743
5.77610000000000045617, 	 267.18586443995127410744, 	 263.36516940905573846976, 	 259.54671093958813798963
5.77720000000000055707, 	 270.16619956602033880699, 	 266.34328575085260126798, 	 262.52173622401329566856
5.77830000000000065796, 	 273.10356280172271681295, 	 269.27741593058539137928, 	 265.45174578779710827803
5.77939999999999987068, 	 275.99716364999216011711, 	 272.16668158030165614036, 	 268.33581546763406322498
5.78049999999999997158, 	 278.84638088293718283239, 	 275.01038768050852922897, 	 271.17319354286041743762
5.78160000000000007248, 	 281.65073934406495936855, 	 277.80800726471403550022, 	 273.96329953475134288965
5.78270000000000017337, 	 284.40986279429176875055, 	 280.55913648010334782157, 	 276.70569136780977714807
5.78380000000000027427, 	 287.12343006468461226177, 	 283.26344896940440776234, 	 279.40002559958520578220
5.78490000000000037517, 	 289.79114552900063017660, 	 285.92066230894295131293, 	 282.04602365328594260063
5.78600000000000047606, 	 292.41272380935896535448, 	 288.53051797241778331227, 	 284.64344782573238035184
5.78710000000000057696, 	 294.98788431587041714010, 	 291.09277212353578079274, 	 287.19208873264170733819
5.78820000000000067786, 	 297.51635374625902841217, 	 293.60719610576700233651, 	 289.69176187738571570662
5.78929999999999989058, 	 299.99786751646536231419, 	 296.07357377284358790348, 	 292.14229817586215176561
5.79039999999999999147, 	 302.43216721022707815791, 	 298.49169804157219232366, 	 294.54354277379331961129
5.79150000000000009237, 	 304.81900810972126691922, 	 300.86138350881071801268, 	 296.89537586986682526913
5.79260000000000019327, 	 307.15818014767370414120, 	 303.18249395201661400279, 	 299.19774441487408012108
5.79370000000000029416, 	 309.44952777644215302644, 	 305.45496513542508409955, 	 301.45068201642294525300
5.79480000000000039506, 	 311.69295264159171665597, 	 307.67880517986986887990, 	 303.65430281584571048370
5.79590000000000049596, 	 313.88839570869129147468, 	 309.85407081249223892883, 	 305.80877222956416972011
5.79700000000000059686, 	 316.03580896562141333561, 	 311.98083255115909651067, 	 307.91426961216546942524
5.79810000000000069775, 	 318.13513122110464337311, 	 314.05914565860570064615, 	 309.97095897593681002036
5.79919999999999991047, 	 320.18627747533781757738, 	 316.08903724799120027456, 	 311.97897649741241821175
5.80030000000000001137, 	 322.18914259783406350834, 	 318.07050995821549577158, 	 313.93843415919451445006
5.80140000000000011227, 	 324.14361354816469429352, 	 320.00355551059556091786, 	 315.84943275536681994708
5.80250000000000021316, 	 326.04958265901461800240, 	 321.88816969906059739515, 	 317.71207626705052007310
5.80360000000000031406, 	 327.90695664191758851302, 	 323.72436277453863340270, 	 319.52648195396301389337
5.80470000000000041496, 	 329.71565950001144074122, 	 325.51216305114763827078, 	 321.29278401657205677111
5.80580000000000051585, 	 331.47563035832155264870, 	 327.25161468294186306593, 	 323.01113153325178473096
5.80690000000000061675, 	 333.18681851255900028264, 	 328.94277205359333038359, 	 324.68168283641955440544
5.80800000000000071765, 	 334.84917795096441750502, 	 330.58569327830809925217, 	 326.30459868702763515103
5.80909999999999993037, 	 336.46266285275885365991, 	 332.18043457994980371950, 	 327.88003604044257599526
5.81020000000000003126, 	 338.02722469039548514047, 	 333.72704637211904810101, 	 329.40814337301247860523
5.81130000000000013216, 	 339.54281089325769471543, 	 335.22557112712524940434, 	 330.88905780160132508172
5.81240000000000023306, 	 341.00936466082356446350, 	 336.67604264570292116332, 	 332.32290371346709889622
5.81350000000000033396, 	 342.42682538687995474902, 	 338.07848614345471105480, 	 333.70979234858384643303
5.81460000000000043485, 	 343.79512919683810423521, 	 339.43291857285817059164, 	 335.04982173575518800135
5.81570000000000053575, 	 345.11420918336176555385, 	 340.73934856043115360080, 	 336.34307600846000241290
5.81680000000000063665, 	 346.38399495479876577519, 	 341.99777600261501220302, 	 337.58962583632359155672
5.81789999999999984936, 	 347.60441357664376482717, 	 343.20819282359019553041, 	 338.78952742876191450705
5.81899999999999995026, 	 348.77538668522623765966, 	 344.37057857397019233758, 	 339.94281726817604294411
5.82010000000000005116, 	 349.89682822384668270388, 	 345.48489844937489579024, 	 341.04951155236966542361
5.82120000000000015206, 	 350.96864568100414771834, 	 346.55110534708171599050, 	 342.10960943124388222714
5.82230000000000025295, 	 351.99074376551374143673, 	 347.56914436593046957569, 	 343.12309761015171716281
5.82340000000000035385, 	 352.96302713003524331725, 	 348.53895547244087538274, 	 344.08995171430416348812
5.82450000000000045475, 	 353.88539920705306940363, 	 349.46047132480737218430, 	 345.01013202614575448024
5.82560000000000055564, 	 354.75775276841551431062, 	 350.33360076959075968261, 	 345.88355599390575889629
5.82670000000000065654, 	 355.57995380746177715992, 	 351.15821772848732962302, 	 346.71011088063420402250
5.82779999999999986926, 	 356.35187459328818704307, 	 351.93420811463391828511, 	 347.48970627116096920872
5.82889999999999997016, 	 357.07341574470842715527, 	 352.66148598968379701546, 	 348.22227173385357446023
5.83000000000000007105, 	 357.74449713424229457814, 	 353.33998193161028211762, 	 348.90774572568318490084
5.83110000000000017195, 	 358.36504297931151086232, 	 353.96962690079641333796, 	 349.54606145895286317682
5.83220000000000027285, 	 358.93496986066503495749, 	 354.55033855576249379737, 	 350.13713349165175259259
5.83330000000000037375, 	 359.45417986122970432916, 	 355.08201288625878078165, 	 350.68084894964437125964
5.83440000000000047464, 	 359.92255909860460860727, 	 355.56452201287822845188, 	 351.17706495515591313961
5.83550000000000057554, 	 360.33998059611599273921, 	 355.99771722020676634202, 	 351.62561158790975923694
5.83660000000000067644, 	 360.70630958900846962933, 	 356.38143509904449501846, 	 352.02629824881341846776
5.83769999999999988916, 	 361.02140919608729063839, 	 356.71550438294156037955, 	 352.37892098662206308290
5.83879999999999999005, 	 361.28514500591001024077, 	 356.99975176066135418296, 	 352.68326903900123170388
5.83990000000000009095, 	 361.49738797220209107763, 	 357.23400583433510746545, 	 352.93912959025618647502
5.84100000000000019185, 	 361.65801565884788715266, 	 357.41809916147616377202, 	 353.14629058479931700276
5.84210000000000029274, 	 361.76691233553731308348, 	 357.55186889778667591600, 	 353.30454205138539691688
5.84320000000000039364, 	 361.82396854518236750664, 	 357.63515670505410071200, 	 353.41367652507329921718
5.84430000000000049454, 	 361.82908059924363897153, 	 357.66780844391456639642, 	 353.47348909104164249584
5.84540000000000059543, 	 361.78215028974301503695, 	 357.64967404268639938891, 	 353.48377754816863216547
5.84650000000000069633, 	 361.68308503244554685807, 	 357.58060785156646943506, 	 353.44434306185559080404
5.84759999999999990905, 	 361.53179845328821784278, 	 357.46046948228070050391, 	 353.35499123991894521168
5.84870000000000000995, 	 361.32821117269497790403, 	 357.28912484765788803998, 	 353.21553335117999949944
5.84980000000000011084, 	 361.07225151942628826873, 	 357.06644710788094698728, 	 353.02578742575195747122
5.85090000000000021174, 	 360.76385601368644984177, 	 356.79231734069770709539, 	 352.78557906076594008482
5.85200000000000031264, 	 360.40296960625119027100, 	 356.46662495105243806393, 	 352.49474204089966633546
5.85310000000000041354, 	 359.98954587420661255237, 	 356.08926796342643683602, 	 352.15311849038249647492
5.85420000000000051443, 	 359.52354647263416609348, 	 355.66015260258581065500, 	 351.76055977965336296620
5.85530000000000061533, 	 359.00494411021702489961, 	 355.17919776491987704503, 	 351.31693102086825319930
5.85640000000000071623, 	 358.43372160508158685843, 	 354.64633207636586575973, 	 350.82210594279922588612
5.85749999999999992895, 	 357.80987024895654258216, 	 354.06149346335604377600, 	 350.27596915276291156260
5.85860000000000002984, 	 357.13339136196617573660, 	 353.42463123038254479980, 	 349.67841838626975459192
5.85970000000000013074, 	 356.40429824051597051948, 	 352.73570853519947831956, 	 349.02936735436310300429
5.86080000000000023164, 	 355.62261816960096894036, 	 351.99470506846773787402, 	 348.32874892028866042892
5.86190000000000033253, 	 354.78839400934811010302, 	 351.20161909342971284786, 	 347.57651724367480028377
5.86300000000000043343, 	 353.90168444650487344916, 	 350.35646767854433392131, 	 346.77264767568192382896
5.86410000000000053433, 	 352.96256252673003928066, 	 349.45928479333042560029, 	 345.91713440411626834248
5.86520000000000063523, 	 351.97111313689458711451, 	 348.51011821875067653309, 	 345.00998712540325641385
5.86629999999999984794, 	 350.92743075716833800470, 	 347.50902689468239259440, 	 344.05122846061692598596
5.86739999999999994884, 	 349.83161860011574617602, 	 346.45607999688564859753, 	 343.04089331697417719624
5.86850000000000004974, 	 348.68378946567486309505, 	 345.35135807882835479177, 	 341.97903038458213131889
5.86960000000000015064, 	 347.48406782167757000934, 	 344.19495566925331786479, 	 340.86570506316428463833
5.87070000000000025153, 	 346.23259220423102533459, 	 342.98698425640526465941, 	 339.70100272391619000700
5.87180000000000035243, 	 344.92951710807597009989, 	 341.72757468350488352371, 	 338.48503133345394644493
5.87290000000000045333, 	 343.57501391794750134068, 	 340.41687841896174404610, 	 337.21792291380705819392
5.87400000000000055422, 	 342.16927089170945919250, 	 339.05506770454559273276, 	 335.89983386008304933057
5.87510000000000065512, 	 340.71249254036359843667, 	 337.64233496549070423498, 	 334.53094448072380373560
5.87619999999999986784, 	 339.20489874063486013256, 	 336.17889175359169939838, 	 333.11145771753825783890
5.87729999999999996874, 	 337.64672337623892417469, 	 334.66496700872124847592, 	 331.64159723744592156436
5.87840000000000006963, 	 336.03821351356617697093, 	 333.10080639829152460152, 	 330.12160774712367583561
5.87950000000000017053, 	 334.37963265316693650675, 	 331.48667830655699617637, 	 328.55176569244338224962
5.88060000000000027143, 	 332.67127035564175230320, 	 329.82288582343500138450, 	 326.93239047729872481796
5.88170000000000037232, 	 330.91344379758993454743, 	 328.10976483640007472786, 	 325.26383427912486467903
5.88280000000000047322, 	 329.10648237898334400597, 	 326.34766260489726619198, 	 323.54645548068691596200
5.88390000000000057412, 	 327.25070786686245583041, 	 324.53691467367735867811, 	 321.78059770596797761755
5.88500000000000067502, 	 325.34642710628367012760, 	 322.67783852636898700439, 	 319.96658844984187908267
5.88609999999999988773, 	 323.39394141644771707433, 	 320.77074618372790837384, 	 318.10475459205775905502
5.88719999999999998863, 	 321.39356370486149216958, 	 318.81596433380735788887, 	 316.19544227965917571055
5.88830000000000008953, 	 319.34563165474554580214, 	 316.81384912502710449189, 	 314.23903011666169504679
5.88940000000000019043, 	 317.25116619885358204556, 	 314.76472338588496313605, 	 312.23602868468026372284
5.89050000000000029132, 	 315.11474173995520686731, 	 312.66954724999430936805, 	 310.18607578573642058473
5.89160000000000039222, 	 312.93327189764693230245, 	 310.52821425409371158821, 	 308.08914612656997178419
5.89270000000000049312, 	 310.70510456827304324179, 	 308.33992251649453919526, 	 305.94528739792872329417
5.89380000000000059401, 	 308.43009177568501399946, 	 306.10476545773803991324, 	 303.75479428451097874131
5.89490000000000069491, 	 306.10891686793326016414, 	 303.82352990986203167267, 	 301.51847062905221719120
5.89599999999999990763, 	 303.74247029550275556176, 	 301.49726673056693471153, 	 299.23740072177236015705
5.89710000000000000853, 	 301.33160081346426295568, 	 299.12696570335793921913, 	 296.91263387260516992683
5.89820000000000010942, 	 298.87701896132023193786, 	 296.71345777297659651595, 	 294.54508809009945480284
5.89930000000000021032, 	 296.37929772857728494273, 	 294.25740629706496065410, 	 292.13551905635961247754
5.90040000000000031122, 	 293.83891003905785055395, 	 291.75934363396800108603, 	 289.68453446283785979176
5.90150000000000041211, 	 291.25625717941102266195, 	 289.21969689414447657327, 	 287.19260518079767052768
5.90260000000000051301, 	 288.63169460158616175249, 	 286.63882927194521244019, 	 284.66012978304763691995
