x [cm], 	 0.40000000000000002220, 	 2.00000000000000000000, 	 3.60000000000000008882
0.00000000000000000000, 	 0.00000000000000000000, 	 0.00000000000000000000, 	 0.00000000000000000000
5.70020000000000059970, 	 3.81502965564577900537, 	 5.95916253609973978200, 	 8.13907901002851552619
5.70130000000000070060, 	 5.29443917193135860089, 	 6.76864988499933240007, 	 8.59282873725178042434
5.70239999999999991331, 	 8.45879401479899684091, 	 9.28921938210736897190, 	 10.52740001621312515567
5.70350000000000001421, 	 12.74480782190097016837, 	 13.16786718724606508601, 	 13.84062420428764816904
5.70460000000000011511, 	 17.62377601566110385534, 	 17.83543940804930372224, 	 18.03842997126248803852
5.70570000000000021600, 	 22.59260947850399503523, 	 22.71648494502911930226, 	 22.58968133150466428560
5.70680000000000031690, 	 27.25380122678285133020, 	 27.31828796271332393530, 	 26.99804807007610563119
5.70790000000000041780, 	 31.58623036844534581746, 	 31.54791048352574378555, 	 31.13270501075710683381
5.70900000000000051870, 	 35.76543281795469653161, 	 35.58215118554370803849, 	 35.08364809550257490400
5.71010000000000061959, 	 39.94871216641206501663, 	 39.59198031701965447837, 	 38.98169689216688027500
5.71119999999999983231, 	 44.19351441099737343166, 	 43.65719565137606394956, 	 42.90622294155767235679
5.71229999999999993321, 	 48.44165361601678654324, 	 47.74401076773742147452, 	 46.84569110579260353688
5.71340000000000003411, 	 52.64726619533477247614, 	 51.78373625611333608276, 	 50.73375056069556876537
5.71450000000000013500, 	 56.79086486599616989679, 	 55.75797224651400796347, 	 54.55830516432668275684
5.71560000000000023590, 	 60.89765505029786396562, 	 59.70285071499981910392, 	 58.35255996433880909535
5.71670000000000033680, 	 64.99560428363319886103, 	 63.63584435823324270132, 	 62.12695958908752658090
5.71780000000000043769, 	 69.09619979330578587451, 	 67.57146767215122906691, 	 65.90128028349928968055
5.71890000000000053859, 	 73.20684418723266162488, 	 71.52225191995390218835, 	 69.69445804482793960233
5.72000000000000063949, 	 77.33285932878035850990, 	 75.49703048572368402347, 	 73.52304849352016447028
5.72109999999999985221, 	 81.47437251981503436582, 	 79.50159552138251228826, 	 77.39822877837541170720
5.72219999999999995310, 	 85.63638702727712370688, 	 83.54251363279091435743, 	 81.32274737897046179569
5.72330000000000005400, 	 89.81600484208783541362, 	 87.61511525011577816713, 	 85.29011828296667374616
5.72440000000000015490, 	 94.00483336889202234943, 	 91.70904705356022645901, 	 89.28953493045560207975
5.72550000000000025580, 	 98.19416373635387174090, 	 95.81353165898646295773, 	 93.30952372466565236664
5.72660000000000035669, 	 102.37762954861518949201, 	 99.92019204577216839880, 	 97.34037553305597612052
5.72770000000000045759, 	 106.55156927320406623494, 	 104.02365260224988219306, 	 101.37510713319721844528
5.72880000000000055849, 	 110.71433233282799335484, 	 108.12101626357797101718, 	 105.40939856232223803545
5.72990000000000065938, 	 114.86542215943529754441, 	 112.21102620456491649747, 	 109.44097599228747696998
5.73099999999999987210, 	 119.00480531839943409977, 	 116.29326846141904638898, 	 113.46881040673105189853
5.73209999999999997300, 	 123.13245532023897510499, 	 120.36757164732483715852, 	 117.49242401505448185617
5.73320000000000007390, 	 127.24814362176191195886, 	 124.43368566269421648940, 	 121.51147229253575687835
5.73430000000000017479, 	 131.35144210919858664965, 	 128.49122175434663972737, 	 125.52560126992734979012
5.73540000000000027569, 	 135.44183389738068967745, 	 132.53973327540978743855, 	 129.53445592843030453878
5.73650000000000037659, 	 139.51881006728183365340, 	 136.57879175409075855896, 	 133.53769857017667277432
5.73760000000000047748, 	 143.58188248512806239887, 	 140.60797681833136607565, 	 137.53496284845095942728
5.73870000000000057838, 	 147.63052066565802533660, 	 144.62678874456864264175, 	 141.52575286375730456712
5.73980000000000067928, 	 151.66406969445822028320, 	 148.63454671548197438824, 	 145.50934000148924951645
5.74089999999999989200, 	 155.68169888021077440499, 	 152.63032568264202382124, 	 149.48470108701297931475
5.74199999999999999289, 	 159.68240275810615003138, 	 156.61295742423939714172, 	 153.45052211831014687959
5.74310000000000009379, 	 163.66504458180554593127, 	 160.58108225644082267536, 	 157.40525065115383540615
5.74420000000000019469, 	 167.62841399016099330765, 	 164.53321994478179135513, 	 161.34717052137204973405
5.74530000000000029559, 	 171.57127650485750791631, 	 168.46783346170116146823, 	 165.27447221020034362482
5.74640000000000039648, 	 175.49240213321661485679, 	 172.38336889758184611310, 	 169.18530030671371378048
5.74750000000000049738, 	 179.39057153897806529130, 	 176.27826840802597985203, 	 173.07777372384663294724
5.74860000000000059828, 	 183.26456746970890776538, 	 180.15096463882056809780, 	 176.94998627591647277768
5.74970000000000069917, 	 187.11316157758810163614, 	 183.99986761090437425992, 	 180.79999661937077348739
5.75079999999999991189, 	 190.93510293781784525891, 	 187.82335184459614652042, 	 184.62581643424331900860
5.75190000000000001279, 	 194.72911270289134222367, 	 191.61975035837244263348, 	 188.42540531775239287526
5.75300000000000011369, 	 198.49388640984375342668, 	 195.38735751801272044759, 	 192.19667393115619802302
5.75410000000000021458, 	 202.22810100009252209929, 	 199.12443752426170817671, 	 195.93749289412991743120
5.75520000000000031548, 	 205.93042382013786095740, 	 202.82923646808262674313, 	 199.64570768657790722500
5.75630000000000041638, 	 209.59952488290295491424, 	 206.50000017124841633631, 	 203.31916219316033789255
5.75740000000000051728, 	 213.23409334472350451506, 	 210.13499785101049610603, 	 206.95572853171256610949
5.75850000000000061817, 	 216.83285509252911538169, 	 213.73254705494562699641, 	 210.55333764284588937699
5.75960000000000071907, 	 220.39458761717770585165, 	 217.29103532523359376682, 	 214.11000654194543812991
5.76069999999999993179, 	 223.91813086523359288549, 	 220.80893716380501246022, 	 217.62386110834643204726
5.76180000000000003268, 	 227.40239516817820231154, 	 224.28482745485035820820, 	 221.09315524624994964142
5.76290000000000013358, 	 230.84636786206360170581, 	 227.71739294766214811716, 	 224.51628745501298567433
5.76400000000000023448, 	 234.24911931099444473148, 	 231.10544241527679787396, 	 227.89181507231390355628
5.76510000000000033538, 	 237.60980802333884298605, 	 234.44791505674260179148, 	 231.21846571406706516427
5.76620000000000043627, 	 240.92768414840077184635, 	 237.74388633157175831911, 	 234.49514519677094881445
5.76730000000000053717, 	 244.20209082984851534093, 	 240.99257064115400339688, 	 237.72094143380624586825
5.76840000000000063807, 	 247.43246330232565810547, 	 244.19332073008993688745, 	 240.89512419967905998419
5.76949999999999985079, 	 250.61832592850046808053, 	 247.34562396970824238451, 	 244.01714063006335209138
5.77059999999999995168, 	 253.75928518813338996551, 	 250.44909095030121193304, 	 247.08659638966489069389
5.77170000000000005258, 	 256.85500707037829215551, 	 253.50342114179423447240, 	 250.10320992452159316599
5.77280000000000015348, 	 259.90519125903193753402, 	 256.50837451003405931260, 	 253.06679583846718628592
5.77390000000000025437, 	 262.90958837167744377439, 	 259.46380308937449399309, 	 255.97731602376626369733
5.77500000000000035527, 	 265.86805485634920387383, 	 262.36971962207513797694, 	 258.83494734459753772171
5.77610000000000045617, 	 268.78058754188737111690, 	 265.22633101674819045002, 	 261.64009511107212802017
5.77720000000000055707, 	 271.64729193191192280210, 	 268.03398780013424129720, 	 264.39332175731539109620
5.77830000000000065796, 	 274.46830393314633056434, 	 270.79308361431992580037, 	 267.09523626698501175269
5.77939999999999987068, 	 277.24370821096346162449, 	 273.50395155776260480707, 	 269.74638759324108150395
5.78049999999999997158, 	 279.97351145861085797151, 	 276.16684153204181484398, 	 272.34726695006753516282
5.78160000000000007248, 	 282.65770744447837614644, 	 278.78200634292397808167, 	 274.89840379113547896850
5.78270000000000017337, 	 285.29636431271973151524, 	 281.34979840216357160898, 	 277.40044129040035159051
5.78380000000000027427, 	 287.88955835866698862446, 	 283.87073550495586005127, 	 279.85371422893575754642
5.78490000000000037517, 	 290.43861642564087333085, 	 286.34509765088591848325, 	 282.25410219824357227481
5.78600000000000047606, 	 292.94493693000435996510, 	 288.77423012992898065932, 	 284.60627707368473693350
5.78710000000000057696, 	 295.40884276334145397414, 	 291.15993119590302740107, 	 286.91354472049692958535
5.78820000000000067786, 	 297.82987276512176322285, 	 293.50244090520948248013, 	 289.17693772348332004185
5.78929999999999989058, 	 300.20707046022334907320, 	 295.80113070164867394851, 	 291.39635817538646733738
5.79039999999999999147, 	 302.53959320813709155118, 	 298.05533318478654791761, 	 293.57149048878818575758
5.79150000000000009237, 	 304.82701935387206049199, 	 300.26477355172454508647, 	 295.70228965584334446248
5.79260000000000019327, 	 307.06932546677126083523, 	 302.42960553636879694750, 	 297.78908912519085561144
5.79370000000000029416, 	 309.26671313849482203295, 	 304.55025205892331996438, 	 299.83249795914650803752
5.79480000000000039506, 	 311.41943970812332054265, 	 306.62722297803884430323, 	 301.83323936249519192643
5.79590000000000049596, 	 313.52771394161084117513, 	 308.66098736516607914382, 	 303.79201508147940558047
5.79700000000000059686, 	 315.59165583012196520940, 	 310.65191298874924541451, 	 305.70942791027675866644
5.79810000000000069775, 	 317.61130055294404428423, 	 312.60025969880967977588, 	 307.58596175298225716688
5.79919999999999991047, 	 319.58662502213837797171, 	 314.50620493531522470221, 	 309.42200129034580413645
5.80030000000000001137, 	 321.51757852099746060048, 	 316.36987655851226008963, 	 311.21785644570246631702
5.80140000000000011227, 	 323.40408430290017349762, 	 318.19135082042907924915, 	 312.97376325940291508232
5.80250000000000021316, 	 325.24607428114279628062, 	 319.97071901263518611813, 	 314.68998901495405107198
5.80360000000000031406, 	 327.04352500264485570369, 	 321.70811439635758688382, 	 316.36682113602131494190
5.80470000000000041496, 	 328.79641408985821726674, 	 323.40365237975254331104, 	 318.00449652126150112963
5.80580000000000051585, 	 330.50466719640496648935, 	 325.05737565545780398679, 	 319.60316892644294739512
5.80690000000000061675, 	 332.16816374726545291196, 	 326.66926649854769948433, 	 321.16292796976972567791
5.80800000000000071765, 	 333.78676623092911768254, 	 328.23927894613285616288, 	 322.68382566172869019283
5.80909999999999993037, 	 335.36033807926833105739, 	 329.76735770471543673921, 	 324.16589102264538269083
5.81020000000000003126, 	 336.88874406486030466112, 	 331.25343862574408149158, 	 325.60913058504019090833
5.81130000000000013216, 	 338.37184304390012812291, 	 332.69744153739543435222, 	 327.01352378446517832344
5.81240000000000023306, 	 339.80948325647017327356, 	 334.09926610605430141732, 	 328.37902121773498720358
5.81350000000000033396, 	 341.20150288861884746439, 	 335.45879302215672623788, 	 329.70554642154951352495
5.81460000000000043485, 	 342.54773233676024801753, 	 336.77588628343323762238, 	 330.99299715480361783193
5.81570000000000053575, 	 343.84799424228339148613, 	 338.05039248059824785742, 	 332.24124328008292650338
5.81680000000000063665, 	 345.10210068738643940378, 	 339.28213682271353945907, 	 333.45012171303426384839
5.81789999999999984936, 	 346.30984826373571650038, 	 340.47091561043203000736, 	 334.61942580093523247342
5.81899999999999995026, 	 347.47101361143052145053, 	 341.61649277627128640233, 	 335.74890791205058349078
5.82010000000000005116, 	 348.58536186360009878626, 	 342.71861047036907166330, 	 336.83828809116647562405
5.82120000000000015206, 	 349.65264865641734104429, 	 343.77698887910008807012, 	 337.88725011631447614491
5.82230000000000025295, 	 350.67261602665342934415, 	 344.79132168077217102109, 	 338.89543809050809386463
5.82340000000000035385, 	 351.64499034678112820984, 	 345.76127415409609966446, 	 339.86245562739514980422
5.82450000000000045475, 	 352.56948350495162003426, 	 346.68648499631427739587, 	 340.78786847026339046351
5.82560000000000055564, 	 353.44579617764696877202, 	 347.56657062322483398020, 	 341.67120947710941436526
5.82670000000000065654, 	 354.27362137651067541810, 	 348.40112984826475894806, 	 342.51198396403572132840
5.82779999999999986926, 	 355.05264700369974661953, 	 349.18974747184500984076, 	 343.30967406424167620571
5.82889999999999997016, 	 355.78255722554439444139, 	 349.93199637177559679913, 	 344.06374080440139096027
5.83000000000000007105, 	 356.46302731285743448097, 	 350.62742785146048163369, 	 344.77360804011811978853
5.83110000000000017195, 	 357.09372144279376470877, 	 351.27557884649689867729, 	 345.43869307901366028091
5.83220000000000027285, 	 357.67432215962764985306, 	 351.87600619618820019241, 	 346.05842926115212776494
5.83330000000000037375, 	 358.20452575705991193900, 	 352.42827435853001816213, 	 346.63224485174356459538
5.83440000000000047464, 	 358.68402330815035838896, 	 352.93193574827103020652, 	 347.15955044197397683092
5.83550000000000057554, 	 359.11249741744830998869, 	 353.38652998076298672459, 	 347.63974345517260644556
5.83660000000000067644, 	 359.48963209076407565590, 	 353.79159622197238377339, 	 348.07222083446742999513
5.83769999999999988916, 	 359.81512241429851428620, 	 354.14668437546094992285, 	 348.45638945346047421481
5.83879999999999999005, 	 360.08867882814740823960, 	 354.45136017892127711093, 	 348.79166971496158566879
5.83990000000000009095, 	 360.31001983982969250064, 	 354.70519448806095397231, 	 349.07748254520242880972
5.84100000000000019185, 	 360.47886735014202486127, 	 354.90776212970791902990, 	 349.31325696752207932150
5.84210000000000029274, 	 360.59495538396674874093, 	 355.05865311816762641683, 	 349.49844109156384774906
5.84320000000000039364, 	 360.65803669700534328513, 	 355.15748026296449779693, 	 349.63250926246610106318
5.84430000000000049454, 	 360.66788468374613785272, 	 355.20388162241317786538, 	 349.71496423080094473335
5.84540000000000059543, 	 360.62429078054390174657, 	 355.19751760004351126554, 	 349.74533465041560020836
5.84650000000000069633, 	 360.52706175022717616230, 	 355.13806844850995503293, 	 349.72317390871950237852
5.84759999999999990905, 	 360.37601966015222387796, 	 355.02523464745888759353, 	 349.64806105961724824738
5.84870000000000000995, 	 360.17100320282764869262, 	 354.85873842657667864842, 	 349.51960214859423103917
5.84980000000000011084, 	 359.91186860594706331540, 	 354.63832474090406776668, 	 349.33743056171255148001
5.85090000000000021174, 	 359.59848353150402999745, 	 354.36374815617313061011, 	 349.10118092411676116171
5.85200000000000031264, 	 359.23071381638351340371, 	 354.03476753913929542250, 	 348.81051682604606867244
5.85310000000000041354, 	 358.80846883488317189403, 	 353.65120115025075619997, 	 348.46516498575664400050
5.85420000000000051443, 	 358.33168505513037871424, 	 353.21289620929638886082, 	 348.06488359667275744869
5.85530000000000061533, 	 357.80032988181409336903, 	 352.71975031539238898404, 	 347.60950670584816180053
5.85640000000000071623, 	 357.21441771456557034981, 	 352.17172266918180412176, 	 347.09893625410290951550
5.85749999999999992895, 	 356.57399035192088376789, 	 351.56880645044975608471, 	 346.53310969520867956817
5.85860000000000002984, 	 355.87909257144673347284, 	 350.91100044463814811024, 	 345.91197678566987860904
5.85970000000000013074, 	 355.12977293693160163457, 	 350.19831291724409538801, 	 345.23550399787683318209
5.86080000000000023164, 	 354.32608260973955793816, 	 349.43075326776818201324, 	 344.50365966131488448809
5.86190000000000033253, 	 353.46807944751031982378, 	 348.60833791862370389936, 	 343.71641551548742654631
5.86300000000000043343, 	 352.55581918973410893159, 	 347.73107742685255061588, 	 342.87373847078617927764
5.86410000000000053433, 	 351.58936495888906392793, 	 346.79899163145631746374, 	 341.97560733052858950032
5.86520000000000063523, 	 350.56879517879929153423, 	 345.81211845246934899478, 	 341.02202255891319282455
5.86629999999999984794, 	 349.49421208561875573650, 	 344.77052700076376368088, 	 340.01302391226374766120
5.86739999999999994884, 	 348.36575004573273872666, 	 343.67432877953245906610, 	 338.94870250290102831059
5.86850000000000004974, 	 347.18357678060328908032, 	 342.52367916082476995143, 	 337.82920114994504956485
5.86960000000000015064, 	 345.94788590836674302409, 	 341.31876757205600370071, 	 336.65470281655825601774
5.87070000000000025153, 	 344.65888838763459034453, 	 340.05980851139054266241, 	 335.42542433629267861761
5.87180000000000035243, 	 343.31680965011673833942, 	 338.74703669611159284614, 	 334.14160825605426907714
5.87290000000000045333, 	 341.92188584830500985845, 	 337.38070127703969092181, 	 332.80351555614043945752
5.87400000000000055422, 	 340.47436171193032805604, 	 335.96106274772688493613, 	 331.41142247965638034657
5.87510000000000065512, 	 338.97449250820267252493, 	 334.48839532600254642603, 	 329.96562266405868513175
5.87619999999999986784, 	 337.42254533917008529897, 	 332.96298734357753801305, 	 328.46642581617339828881
5.87729999999999996874, 	 335.81879883762729832597, 	 331.38514108059933960249, 	 326.91415811820297676604
5.87840000000000006963, 	 334.16354333013146060694, 	 329.75517290022730776400, 	 325.30916206695081882572
5.87950000000000017053, 	 332.45708044679207660010, 	 328.07341278722208244290, 	 323.65179629526630833425
5.88060000000000027143, 	 330.69972414128977789005, 	 326.34020642040064785760, 	 321.94243935529794953254
5.88170000000000037232, 	 328.89180420816308014764, 	 324.55591997554313365981, 	 320.18149514146989531582
5.88280000000000047322, 	 327.03366865464028023780, 	 322.72094287145228008740, 	 318.36939522301230454104
5.88390000000000057412, 	 325.12568376116865920267, 	 320.83568839118134974342, 	 316.50660064276479488399
5.88500000000000067502, 	 323.16823511059601514717, 	 318.90059583689134115048, 	 314.59360529710716036789
5.88609999999999988773, 	 321.16172856970007387645, 	 316.91613180964463936107, 	 312.63093741548851767220
5.88719999999999998863, 	 319.10659107698609204817, 	 314.88279123173327889162, 	 310.61915949800572889217
5.88830000000000008953, 	 317.00326501053109495842, 	 312.80108772890417867529, 	 308.55885343369578777128
5.88940000000000019043, 	 314.85219658811405452070, 	 310.67153866820950725014, 	 306.45060458591353835800
5.89050000000000029132, 	 312.65382871518932006438, 	 308.49465627144672907889, 	 304.29499308022087689096
5.89160000000000039222, 	 310.40860150220714785974, 	 306.27094801539078616770, 	 302.09259441131894163846
5.89270000000000049312, 	 308.11695786702904342746, 	 304.00092322674345268751, 	 299.84398615742782112648
5.89380000000000059401, 	 305.77934991775907747069, 	 301.68510098426924059822, 	 297.54975643990240996573
5.89490000000000069491, 	 303.39624380175922624403, 	 299.32401676760014197498, 	 295.21051196114405001936
5.89599999999999990763, 	 300.96812312176081150028, 	 296.91822779620616756802, 	 292.82688522529656438564
5.89710000000000000853, 	 298.49548822459433949916, 	 294.46831003494804690490, 	 290.39952466889883453405
5.89820000000000010942, 	 295.97909619546476278629, 	 291.97482014523109228321, 	 287.92916238228065139992
5.89930000000000021032, 	 293.42251105458404936144, 	 289.43856438605655512220, 	 285.41591438442179651247
5.90040000000000031122, 	 290.82373102945240361805, 	 286.85974369451173515699, 	 282.85993090300286212369
5.90150000000000041211, 	 288.18188563182167172272, 	 284.23819037838552503672, 	 280.26178955081502408575
5.90260000000000051301, 	 285.49741877921991317635, 	 281.57458388067499299723, 	 277.62235017481117438365
