x [cm], 	 0.25592592592592589007, 	 34.54999999999999715783, 	 68.84407407407405798949
0.00000000000000000000, 	 0.00000000000000000000, 	 0.00000000000000000000, 	 0.00000000000000000000
5.70020000000000059970, 	 2.97984708350871585480, 	 9.48495701294388560143, 	 17.63709218676430978689
5.70130000000000070060, 	 3.01041379924089103071, 	 9.48179215597414604133, 	 17.59876068880604194078
5.70239999999999991331, 	 3.04460947666223002983, 	 9.48065035301820735469, 	 17.56067603162386703275
5.70350000000000001421, 	 3.08253177920673060441, 	 9.48153220354106096579, 	 17.52284728630969823371
5.70460000000000011511, 	 3.12550074156746982013, 	 9.48443783783891802841, 	 17.48528364137822777025
5.70570000000000021600, 	 3.17764917935825863538, 	 9.48936676125329015008, 	 17.44799443261316085341
5.70680000000000031690, 	 3.24654726865076392883, 	 9.49631770236364225468, 	 17.41098917701797788027
5.70790000000000041780, 	 3.34185233733412578871, 	 9.50528846787426928699, 	 17.37427754983859529148
5.70900000000000051870, 	 3.47307780847055669327, 	 9.51627581818704548766, 	 17.33786933684238817932
5.71010000000000061959, 	 3.64763933720081690026, 	 9.52927544346536237185, 	 17.30177441489549750031
5.71119999999999983231, 	 3.86811698591565145122, 	 9.54428231665239756865, 	 17.26600270301240414028
5.71229999999999993321, 	 4.11701320809773285703, 	 9.56129206464654224362, 	 17.23056414875079767057
5.71340000000000003411, 	 4.40357477756684279058, 	 9.58030442139872029372, 	 17.19546869552022627659
5.71450000000000013500, 	 4.71779056452706146985, 	 9.60133004473245854626, 	 17.16072625739032275760
5.71560000000000023590, 	 5.05305155285975882151, 	 9.62440173454786851437, 	 17.12634669494333650164
5.71670000000000033680, 	 5.40477891300608170866, 	 9.64959026043294976205, 	 17.09233977896393952278
5.71780000000000043769, 	 5.76959165532930207121, 	 9.67702357308957950011, 	 17.05871514585729897817
5.71890000000000053859, 	 6.14597198990576476518, 	 9.70690676477062197591, 	 17.02548225417920235714
5.72000000000000063949, 	 6.53351426493479170432, 	 9.73953967887143434723, 	 16.99265034889912584504
5.72109999999999985221, 	 6.93214109909558207079, 	 9.77532937797033518734, 	 16.96022843615196862288
5.72219999999999995310, 	 7.34170728454399679208, 	 9.81479536779019134940, 	 16.92822527138741151020
5.72330000000000005400, 	 7.76171653836869701593, 	 9.85856649760959058426, 	 16.89664944800667356617
5.72440000000000015490, 	 8.19155922535159852771, 	 9.90736965937559865836, 	 16.86550934945042712343
5.72550000000000025580, 	 8.63065707715111152254, 	 9.96201151632141801429, 	 16.83481329738388154738
5.72660000000000035669, 	 9.07852939170302697391, 	 10.02335527077899612891, 	 16.80456986539830666061
5.72770000000000045759, 	 9.53481479835312129012, 	 10.09229480520315647141, 	 16.77478829592061870812
5.72880000000000055849, 	 9.99923884930177564456, 	 10.16972842389226450166, 	 16.74547903515587066181
5.72990000000000065938, 	 10.47155998246410923969, 	 10.25653402166725314260, 	 16.71665443602307377091
5.73099999999999987210, 	 10.95151554141913763374, 	 10.35354698007015983308, 	 16.68832965654658195831
5.73209999999999997300, 	 11.43878056277262977858, 	 10.46154158115690613329, 	 16.66052374334291741320
5.73320000000000007390, 	 11.93294753952841880107, 	 10.58121630944363289473, 	 16.63326085907445062162
5.73430000000000017479, 	 12.43353016773889230251, 	 10.71318309395778989312, 	 16.60657160744039018141
5.73540000000000027569, 	 12.93998718913267254038, 	 10.85796032849996528569, 	 16.58049432018198743322
5.73650000000000037659, 	 13.45175630073022077227, 	 11.01596935168785407200, 	 16.55507624665721166934
5.73760000000000047748, 	 13.96828628609770994728, 	 11.18753397351448342079, 	 16.53037469334553932754
5.73870000000000057838, 	 14.48906046525766022626, 	 11.37288257082424891564, 	 16.50645787178429912956
5.73980000000000067928, 	 15.01360441847879378940, 	 11.57215223691850525256, 	 16.48340538915801190001
5.74089999999999989200, 	 15.54149270274012373250, 	 11.78539447125648287340, 	 16.46130825870756808627
5.74199999999999999289, 	 16.07234292036318024088, 	 12.01258197614657419194, 	 16.44026871507156783991
5.74310000000000009379, 	 16.60580406065745862065, 	 12.25361693158393983083, 	 16.42040011072795024916
5.74420000000000019469, 	 17.14154282435205800539, 	 12.50831958241760055728, 	 16.40182484730080858526
5.74530000000000029559, 	 17.67924440080679815424, 	 12.77621234924007254108, 	 16.38467370850182902586
5.74640000000000039648, 	 18.21861733220742252115, 	 13.05706151070349818610, 	 16.36908448165199203572
5.74750000000000049738, 	 18.75939362828508905068, 	 13.35078519724034684657, 	 16.35519995291442185703
5.74860000000000059828, 	 19.30132950022349191954, 	 13.65701594599214629966, 	 16.34316571248503890956
5.74970000000000069917, 	 19.84420294549935093187, 	 13.97537794142618849946, 	 16.33312797591008447284
5.75079999999999991189, 	 20.38781048808978013653, 	 14.30545870916900597081, 	 16.32523143213625971271
5.75190000000000001279, 	 20.93196449464631925252, 	 14.64682461864748397318, 	 16.31961658074385113082
5.75300000000000011369, 	 21.47649125466601915946, 	 14.99902326563142196392, 	 16.31641979965055000434
5.75410000000000021458, 	 22.02123018931019871047, 	 15.36158690267805937424, 	 16.31576953843202559824
5.75520000000000031548, 	 22.56603349532665703236, 	 15.73403574955351658105, 	 16.31778635593846971119
5.75630000000000041638, 	 23.11076604516138388590, 	 16.11588076326659546567, 	 16.32258895773451001787
5.75740000000000051728, 	 23.65530558188811127707, 	 16.50662607535760173505, 	 16.33025201837832085516
5.75850000000000061817, 	 24.19954275477604355160, 	 16.90577109893563445553, 	 16.34081183324902042386
5.75960000000000071907, 	 24.74338126196382248168, 	 17.31281234918558098457, 	 16.35435676319230324793
5.76069999999999993179, 	 25.28673857562069926530, 	 17.72724499749630666656, 	 16.37097011894622866635
5.76180000000000003268, 	 25.82954437937279124071, 	 18.14856418349788569344, 	 16.38929228322868780765
5.76290000000000013358, 	 26.37174043836361292392, 	 18.57626611217224521511, 	 16.40699475870180634729
5.76400000000000023448, 	 26.91327955708908348242, 	 19.00984896025281045695, 	 16.42797348029472459530
5.76510000000000033538, 	 27.45412532604950328619, 	 19.44881361296027577623, 	 16.45698547255071986228
5.76620000000000043627, 	 27.99425088165790498351, 	 19.89266425036706920082, 	 16.49190993788307579848
5.76730000000000053717, 	 28.53363756215674129635, 	 20.34090879414669927883, 	 16.53063826081696774395
5.76840000000000063807, 	 29.07227414303930146389, 	 20.79305918831788346779, 	 16.57146228175674096406
5.76949999999999985079, 	 29.61015633855146234055, 	 21.24863148024969206062, 	 16.61426866448836037193
5.77059999999999995168, 	 30.14728550142137919465, 	 21.70714579668296195791, 	 16.65984675915066048901
5.77170000000000005258, 	 30.68366755000648993246, 	 22.16812645781507029596, 	 16.70846287694305942750
5.77280000000000015348, 	 31.21931206897235000497, 	 22.63110241716017156932, 	 16.76023977314441637532
5.77390000000000025437, 	 31.75423134777290101738, 	 23.09560800134607916334, 	 16.81492132653144722099
5.77500000000000035527, 	 32.28843938284829562235, 	 23.56118376014449111722, 	 16.87214021889928261544
5.77610000000000045617, 	 32.82195072403391833404, 	 24.02737722887584936871, 	 16.93181279097336044970
5.77720000000000055707, 	 33.35477942929438199826, 	 24.49374351727777465726, 	 16.99398887135565061612
5.77830000000000065796, 	 33.88693813382776909293, 	 24.95984575901295698941, 	 17.05867187439409704552
5.77939999999999987068, 	 34.41843701635861663135, 	 25.42525552487105855448, 	 17.12581815408507424081
5.78049999999999997158, 	 34.94928268820712702336, 	 25.88955344885488329965, 	 17.19535989311867751894
5.78160000000000007248, 	 35.47947719848158243394, 	 26.35233475258790036833, 	 17.26720231397974458787
5.78270000000000017337, 	 36.00901690149354550385, 	 26.81319513365670204053, 	 17.34123632261707115276
5.78380000000000027427, 	 36.53789141752913849359, 	 27.27173732673569972462, 	 17.41736117174525588780
5.78490000000000037517, 	 37.06608359520465256765, 	 27.72758194854114677241, 	 17.49541240163220834347
5.78600000000000047606, 	 37.59356732596483396946, 	 28.18036128575839427413, 	 17.57523678628061958307
5.78710000000000057696, 	 38.12030194847712039063, 	 28.62972011698289875881, 	 17.65674220192858712153
5.78820000000000067786, 	 38.64623225697528852152, 	 29.07531651609350831222, 	 17.73986587623397426228
5.78929999999999989058, 	 39.17129327969234253715, 	 29.51682267250809132975, 	 17.82454445477733173675
5.79039999999999999147, 	 39.69540990322351348141, 	 29.95392570183879854540, 	 17.91070587360628252327
5.79150000000000009237, 	 40.21849323825703947932, 	 30.38632842094080288575, 	 17.99827079149249797752
5.79260000000000019327, 	 40.74043752571974152943, 	 30.81375006329912480396, 	 18.08715606590330082781
5.79370000000000029416, 	 41.26111900168814372591, 	 31.23592691343297644835, 	 18.17727864445179264408
5.79480000000000039506, 	 41.78039614179252936310, 	 31.65261284512405737246, 	 18.26855750037408299136
5.79590000000000049596, 	 42.29811021349257771362, 	 32.06357975530130488551, 	 18.36091465976043934916
5.79700000000000059686, 	 42.81408549364768134637, 	 32.46861788993382447188, 	 18.45427572675408001146
5.79810000000000069775, 	 43.32812905890695986955, 	 32.86753605967872005067, 	 18.54857011080374107337
5.79919999999999991047, 	 43.84003034110611451979, 	 33.26016174293430793796, 	 18.64373109142765727597
5.80030000000000001137, 	 44.34956066681554176512, 	 33.64634107363347226283, 	 18.73969580398843248759
5.80140000000000011227, 	 44.85647292828958399014, 	 34.02593871124877011880, 	 18.83640519191266449184
5.80250000000000021316, 	 45.36050147228991846760, 	 34.39883759137793362015, 	 18.93380394638460018086
5.80360000000000031406, 	 45.86136225860968806955, 	 34.76493855688897838263, 	 19.03184044083473125397
5.80470000000000041496, 	 46.35875330697383844836, 	 35.12415987163227271139, 	 19.13046666094136938341
5.80580000000000051585, 	 46.85235540940327325643, 	 35.47643662080076154552, 	 19.22963812839186914516
5.80690000000000061675, 	 47.34183304899887900774, 	 35.82172000384774435133, 	 19.32931381626823608144
5.80800000000000071765, 	 47.82683545338549890857, 	 36.15997652730452216474, 	 19.42945605440387524254
5.80909999999999993037, 	 48.30699775115477478948, 	 36.49118710586461844514, 	 19.53003042375872766456
5.81020000000000003126, 	 48.78194338132592378088, 	 36.81534608079553549942, 	 19.63100563949107879580
5.81130000000000013216, 	 49.25128492353504583434, 	 37.13246016521880221717, 	 19.73235347099388192760
5.81240000000000023306, 	 49.71462256292670645053, 	 37.44254732617447700704, 	 19.83404864642209375347
5.81350000000000033396, 	 50.17154599387093583118, 	 37.74563561373209097383, 	 19.93606842021189962111
5.81460000000000043485, 	 50.62163796251654446223, 	 38.04176194776659514218, 	 20.03839255236001903882
5.81570000000000053575, 	 51.06447764804569544594, 	 38.33097087342642339536, 	 20.14100322518877561606
5.81680000000000063665, 	 51.49964021640057865170, 	 38.61331329672048440216, 	 20.24388488067477354093
5.81789999999999984936, 	 51.92669661693696525617, 	 38.88884521179245012945, 	 20.34702402950273381066
5.81899999999999995026, 	 52.34521493745510412055, 	 39.15762643120000063846, 	 20.45040907514034245196
5.82010000000000005116, 	 52.75476398599553107260, 	 39.41971933003163997000, 	 20.55403056259009986206
5.82120000000000015206, 	 53.15491534547270191524, 	 39.67518761429040807798, 	 20.65787961165269948083
5.82230000000000025295, 	 53.54524441021503378124, 	 39.92409512375098756820, 	 20.76194863642261623227
5.82340000000000035385, 	 53.92533432275041604953, 	 40.16650467917062883316, 	 20.86623141885366194970
5.82450000000000045475, 	 54.29477827956430502354, 	 40.40247698300044021380, 	 20.97072268250586191130
5.82560000000000055564, 	 54.65317961486344700006, 	 40.63206958174018268437, 	 21.07541780142672038778
5.82670000000000065654, 	 55.00015270153807733777, 	 40.85533589711858581950, 	 21.18031256722496991074
5.82779999999999986926, 	 55.33532445883164285760, 	 41.07232433239806823622, 	 21.28540298011731124461
5.82889999999999997016, 	 55.65833420141358800493, 	 41.28307745936476180759, 	 21.39068504931565328775
5.83000000000000007105, 	 55.96880781513939240313, 	 41.48763129109681102591, 	 21.49615459714474496877
5.83110000000000017195, 	 56.26642230609780881423, 	 41.68601464529617572907, 	 21.60180706556130303397
5.83220000000000027285, 	 56.55088038237580150280, 	 41.87824860250433545161, 	 21.70763732562767955869
5.83330000000000037375, 	 56.82190015893261403335, 	 42.06434606276027210470, 	 21.81363949402908275488
5.83440000000000047464, 	 57.07921756569204774223, 	 42.24431140351445890246, 	 21.91980677825992529506
5.83550000000000057554, 	 57.32258824920592843455, 	 42.41814024049055831256, 	 22.02613124910082476049
5.83660000000000067644, 	 57.55178892503234777678, 	 42.58581929026025392204, 	 22.13260367743576750854
5.83769999999999988916, 	 57.76661842050264539239, 	 42.74732633049222840782, 	 22.23921339678613762203
5.83879999999999999005, 	 57.96689850669196175659, 	 42.90263025384753348135, 	 22.34594816402267625222
5.83990000000000009095, 	 58.15247454199533905239, 	 43.05169121304142265672, 	 22.45279402749122965588
5.84100000000000019185, 	 58.32321592492973394428, 	 43.19446085543691538078, 	 22.55973520389006026221
5.84210000000000029274, 	 58.47901634881701937729, 	 43.33088264506740472370, 	 22.66675396640797046643
5.84320000000000039364, 	 58.61979386825407800643, 	 43.46089226869483468363, 	 22.77383054617734714498
5.84430000000000049454, 	 58.74549079889147407130, 	 43.58441812104680934681, 	 22.88094304835375325524
5.84540000000000059543, 	 58.85607347248379284110, 	 43.70138186315615058675, 	 22.98806738359493095913
5.84650000000000069633, 	 58.95153187045822562595, 	 43.81169904690328564811, 	 23.09517721544434820657
5.84759999999999990905, 	 59.03187920175510328136, 	 43.91527979842161499846, 	 23.20224393717522559655
5.84870000000000000995, 	 59.09715125646058453412, 	 44.01202955287545393048, 	 23.30923664666509509402
5.84980000000000011084, 	 59.14740570570993583033, 	 44.10184983315016893357, 	 23.41612210342120192763
5.85090000000000021174, 	 59.18272137807790755915, 	 44.18463906511631478224, 	 23.52286477072310333369
5.85200000000000031264, 	 59.20319744885491530795, 	 44.26029342228348184562, 	 23.62942687401632113620
5.85310000000000041354, 	 59.20895255336152729342, 	 44.32870784260364871443, 	 23.73576842799867847589
5.85420000000000051443, 	 59.20012387245321860973, 	 44.38977616102927470365, 	 23.84184734168214347960
5.85530000000000061533, 	 59.17686603945832501950, 	 44.44339290179772206102, 	 23.94761959579254551045
5.85640000000000071623, 	 59.13935011660153406865, 	 44.48945399069627626432, 	 24.05303913916325342370
5.85749999999999992895, 	 59.08776062231246584133, 	 44.52785751820133697265, 	 24.15805786610676619830
5.85860000000000002984, 	 59.02229478970374287883, 	 44.55850462966679970123, 	 24.26262581416320784911
5.85970000000000013074, 	 58.94316342755190163416, 	 44.58130038466168798550, 	 24.36669137280978247873
5.86080000000000023164, 	 58.85059058734054104889, 	 44.59615459279753224564, 	 24.47020146760350201021
5.86190000000000033253, 	 58.74481211149686288309, 	 44.60298262136643643316, 	 24.57310173010498388635
5.86300000000000043343, 	 58.62607002613965789806, 	 44.60170616966315293439, 	 24.67533666608490250383
5.86410000000000053433, 	 58.49458600864728907709, 	 44.59225400499859404135, 	 24.77684982887191011969
5.86520000000000063523, 	 58.35058762340719340500, 	 44.57456256822494111702, 	 24.87758400016085857942
5.86629999999999984794, 	 58.19416772904658330390, 	 44.54857378874240225741, 	 24.97748137827675662948
5.86739999999999994884, 	 58.02563583779937061990, 	 44.51422610699485460373, 	 25.07648377286632168648
5.86850000000000004974, 	 57.84543083440246391547, 	 44.47148373466919935026, 	 25.17453280455287867312
5.86960000000000015064, 	 57.65392967465475493327, 	 44.42040941955286825760, 	 25.27157010791923852366
5.87070000000000025153, 	 57.45144274900508918336, 	 44.36090552712114032374, 	 25.36753753612698858433
5.87180000000000035243, 	 57.23824446489835793273, 	 44.29297531310603375232, 	 25.46237736531426421038
5.87290000000000045333, 	 57.01459189519189862949, 	 44.21662501210037987676, 	 25.55603249612596172824
5.87400000000000055422, 	 56.78072918911666278063, 	 44.13187170495058353481, 	 25.64844664820557795792
5.87510000000000065512, 	 56.53691815660754826922, 	 44.03874392976870666416, 	 25.73956454292815365648
5.87619999999999986784, 	 56.28354538692768471719, 	 43.93728175503894561871, 	 25.82933207249569207420
5.87729999999999996874, 	 56.02089286871230910947, 	 43.82753687315327084661, 	 25.91769645934319044045
5.87840000000000006963, 	 55.74917154987306133762, 	 43.70957268319345701002, 	 26.00460641487272539507
5.87950000000000017053, 	 55.46856939743118175556, 	 43.58346434110186606858, 	 26.09001230716853214631
5.88060000000000027143, 	 55.17926836580782889996, 	 43.44929876129261714368, 	 26.17386634281241342137
5.88170000000000037232, 	 54.88145226448312996581, 	 43.30717456252239827563, 	 26.25612276036675751811
5.88280000000000047322, 	 54.57532068034019800962, 	 43.15720195214404952821, 	 26.33673802569713728872
5.88390000000000057412, 	 54.26124952686868851970, 	 42.99950254633039747887, 	 26.41567101438389641999
5.88500000000000067502, 	 53.93945524226254661926, 	 42.83420912368057287267, 	 26.49288316565861123308
5.88609999999999988773, 	 53.61005852609211075332, 	 42.66146530579199946942, 	 26.56833859595036884116
5.88719999999999998863, 	 53.27318729403146591039, 	 42.48142515527639062611, 	 26.64200416632924017790
5.88830000000000008953, 	 52.92897955013733479745, 	 42.29425268466469134410, 	 26.71384950656062429175
5.88940000000000019043, 	 52.57757833899216848295, 	 42.10012128192440172825, 	 26.78384700387053030113
5.89050000000000029132, 	 52.21912698788511875136, 	 41.89921307276893003291, 	 26.85197177155813719196
5.89160000000000039222, 	 51.85376578854066309532, 	 41.69171824401144021977, 	 26.91820160656982707792
5.89270000000000049312, 	 51.48163078822830840409, 	 41.47783434366175470132, 	 26.98251717686146022857
5.89380000000000059401, 	 51.10285511291824178670, 	 41.25776556188176158457, 	 27.04490149014646505066
5.89490000000000069491, 	 50.71756941502654569831, 	 41.03172199089536320571, 	 27.10533997246424320338
5.89599999999999990763, 	 50.32589480614029042727, 	 40.79991886255667310479, 	 27.16382075369718762659
5.89710000000000000853, 	 49.92794637302981897164, 	 40.56257576628410532749, 	 27.22033451518847613215
5.89820000000000010942, 	 49.52382812735569217466, 	 40.31991585416886181292, 	 27.27487462940207407769
5.89930000000000021032, 	 49.11363233603600519928, 	 40.07216504263804068842, 	 27.32743714204308815852
5.90040000000000031122, 	 48.69744480068919045834, 	 39.81955122139610381282, 	 27.37802046995026472587
5.90150000000000041211, 	 48.27534977118182979439, 	 39.56230348019198572729, 	 27.42662511294833649345
5.90260000000000051301, 	 47.84743492870565262365, 	 39.30065136087179666902, 	 27.47325366782062161519
5.90370000000000061391, 	 47.41379397592901057124, 	 39.03482413819196494842, 	 27.51791120418135960790
5.90480000000000071481, 	 46.97451889291535565008, 	 38.76505013011445299753, 	 27.56060525679557571266
5.90589999999999992752, 	 46.52969735151499719450, 	 38.49155603663393065972, 	 27.60134565876127865636
5.90700000000000002842, 	 46.07941222936747749372, 	 38.21456630544664534455, 	 27.64014427451042976713
5.90810000000000012932, 	 45.62373942337480769993, 	 37.93430252329316232363, 	 27.67701458763145083708
