x [cm], 	 0.40000000000000002220, 	 2.00000000000000000000, 	 3.60000000000000008882
0.00000000000000000000, 	 0.00000000000000000000, 	 0.00000000000000000000, 	 0.00000000000000000000
5.70020000000000059970, 	 4.08666752088868090453, 	 6.18267312244997135906, 	 8.30954140254524453724
5.70130000000000070060, 	 5.31731827132444934136, 	 6.81270933606019024609, 	 8.62568491857692798419
5.70239999999999991331, 	 8.05451854585694171362, 	 8.92048269952137751204, 	 10.19713075940864221991
5.70350000000000001421, 	 11.93831271820639372550, 	 12.33708670313859911971, 	 13.07116771165948598821
5.70460000000000011511, 	 16.53200498711259314177, 	 16.61240843628305796642, 	 16.83799695187001432828
5.70570000000000021600, 	 21.44907023662512912665, 	 21.34710541456378507519, 	 21.15446003332911217854
5.70680000000000031690, 	 26.36741698699317026922, 	 26.08521061094643656020, 	 25.53175097724464492899
5.70790000000000041780, 	 30.98887202844721144857, 	 30.54876250186532971043, 	 29.78027774231833646468
5.70900000000000051870, 	 35.29269354857089524558, 	 34.69646050127457215240, 	 33.79311209386621328576
5.71010000000000061959, 	 39.41835348731193988669, 	 38.64537736032688997057, 	 37.62946841193782887558
5.71119999999999983231, 	 43.46083847250868359424, 	 42.52982880583353875181, 	 41.41670902995369374366
5.71229999999999993321, 	 47.51733454101800901981, 	 46.44324551158395308903, 	 45.22447564308041734193
5.71340000000000003411, 	 51.63035391041523780586, 	 50.41594609665946791210, 	 49.07226031379968844703
5.71450000000000013500, 	 55.79288060130703996720, 	 54.44055432530558391591, 	 52.95938137827710079364
5.71560000000000023590, 	 59.98008326707467574579, 	 58.49258175240469626033, 	 56.86924072123019158198
5.71670000000000033680, 	 64.16628307181734669484, 	 62.54532757323214298140, 	 60.77990755729229732651
5.71780000000000043769, 	 68.33298583779736645738, 	 66.57839572961403007412, 	 64.67256042238987845394
5.71890000000000053859, 	 72.46748529563292606781, 	 70.57490956424868500108, 	 68.53376184105174218075
5.72000000000000063949, 	 76.56713716037900496758, 	 74.53574324000045692173, 	 72.36448994010460467052
5.72109999999999985221, 	 80.64393597889606724038, 	 78.47424494356137358864, 	 76.17697214227068513992
5.72219999999999995310, 	 84.71408598584795868192, 	 82.40967877169354949274, 	 79.99122348386929104436
5.72330000000000005400, 	 88.79295881061409545509, 	 86.36073779073910827719, 	 83.82661582296077540377
5.72440000000000015490, 	 92.88992853523427584150, 	 90.33911013894112329581, 	 87.69528280630053984623
5.72550000000000025580, 	 97.00622243711640635411, 	 94.34696833794743042745, 	 91.59995098695721083004
5.72660000000000035669, 	 101.13642915673335664906, 	 98.37871060731733052762, 	 95.53573257356771364357
5.72770000000000045759, 	 105.27206931857637073335, 	 102.42497778926828289059, 	 99.49384641630024361802
5.72880000000000055849, 	 109.40506938512824319787, 	 106.47654085145606472906, 	 103.46517600952627446986
5.72990000000000065938, 	 113.52977294488887594071, 	 110.52660293553481096751, 	 107.44247310955439900226
5.73099999999999987210, 	 117.64329030952920618347, 	 114.57131288543830294202, 	 111.42103354648757829182
5.73209999999999997300, 	 121.74475995553164864305, 	 118.60908657069542471163, 	 115.39829881245104559184
5.73320000000000007390, 	 125.83427073392824979692, 	 122.63951236186873927636, 	 119.37299778189402843509
5.73430000000000017479, 	 129.91197531069647652657, 	 126.66240269634039350422, 	 123.34431043681985329385
5.73540000000000027569, 	 133.97760727236891398206, 	 130.67723835103285523473, 	 127.31131043510590927781
5.73650000000000037659, 	 138.03037934119205942807, 	 134.68301121511186124735, 	 131.27274655757216237362
5.73760000000000047748, 	 142.06913036945820749679, 	 138.67834667669592363382, 	 135.22709514789696072512
5.73870000000000057838, 	 146.09257092503230524017, 	 142.66175209555063929656, 	 139.17275681250404772982
5.73980000000000067928, 	 150.09950738732209174486, 	 146.63185728098068238978, 	 143.10826820044752594185
5.74089999999999989200, 	 154.08897340993658531261, 	 150.58756048661282989087, 	 147.03243655078921392487
5.74199999999999999289, 	 158.06024917407424368321, 	 154.52805090657730602288, 	 150.94436047400475331415
5.74310000000000009379, 	 162.01279079182282316651, 	 158.45272803678068385125, 	 154.84335026343669028392
5.74420000000000019469, 	 165.94611422937884981366, 	 162.36106603593995600932, 	 158.72879181663145686798
5.74530000000000029559, 	 169.85968218843066779300, 	 166.25248002114719270139, 	 162.60001347327425946787
5.74640000000000039648, 	 173.75283606854816298437, 	 170.12624558091275162042, 	 166.45620768332568673031
5.74750000000000049738, 	 177.62478875119708732200, 	 173.98148756849494134258, 	 170.29641701368336725864
5.74860000000000059828, 	 181.47466045586477889628, 	 177.81721677433358763665, 	 174.11956261701681114573
5.74970000000000069917, 	 185.30152585527042674585, 	 181.63237927705895913277, 	 177.92448446191914968040
5.75079999999999991189, 	 189.10444785284281010718, 	 185.42589228762369657488, 	 181.70997187705489750442
5.75190000000000001279, 	 192.88249018073818774610, 	 189.19665849393354051244, 	 185.47477813292005066614
5.75300000000000011369, 	 196.63471476079433841733, 	 192.94356524060449942226, 	 189.21762388659703901794
5.75410000000000021458, 	 200.36017448358467163416, 	 196.66547935080200204538, 	 192.93719729735485657329
5.75520000000000031548, 	 204.05790901353765320891, 	 200.36124499620800065713, 	 196.63215596644326410569
5.75630000000000041638, 	 207.72694611939979836279, 	 204.02968727141586668949, 	 200.30113336382120792223
5.75740000000000051728, 	 211.36630748206081875651, 	 207.66962008196335887078, 	 203.94274789623128185667
5.75850000000000061817, 	 214.97501549606246840085, 	 211.27985468977414029723, 	 207.55561198117470667057
5.75960000000000071907, 	 218.55209916296706751382, 	 214.85920841293705052522, 	 211.13834502814472671162
5.76069999999999993179, 	 222.09660339288566888172, 	 218.40651660856966032043, 	 214.68958411851500045486
5.76180000000000003268, 	 225.60758982423510587978, 	 221.92063326554344371289, 	 218.20798597122595197106
5.76290000000000013358, 	 229.08413820915382075327, 	 225.40043534203869057819, 	 221.69223512277645227186
5.76400000000000023448, 	 232.52534930336599927614, 	 228.84482696236563015191, 	 225.14104881839099903118
5.76510000000000033538, 	 235.93034669252037360820, 	 232.25274224437728776138, 	 228.55318082424537351471
5.76620000000000043627, 	 239.29827827381254223837, 	 235.62314789259085046069, 	 231.92742538704581534148
5.76730000000000053717, 	 242.62831831324058384780, 	 238.95504655613771660683, 	 235.26262207304770868177
5.76840000000000063807, 	 245.91967041893119017004, 	 242.24748125207355542443, 	 238.55766160528924046957
5.76949999999999985079, 	 249.17157116237044078844, 	 245.49954048603532896777, 	 241.81149224637579209229
5.77059999999999995168, 	 252.38329372978279252493, 	 248.71036334134601020196, 	 245.02312603095577969725
5.77170000000000005258, 	 255.55415107354809833851, 	 251.87914394608935708675, 	 248.19164431527093483965
5.77280000000000015348, 	 258.68349829613646306825, 	 255.00513498866226314021, 	 251.31620227211737983453
5.77390000000000025437, 	 261.77073402237550681093, 	 258.08764977562839249003, 	 254.39603136161545648974
5.77500000000000035527, 	 264.81530071928818870219, 	 261.12606338938593353305, 	 257.43044215378182570930
5.77610000000000045617, 	 267.81668620408299830160, 	 264.11981506536807273733, 	 260.41882686058193030476
5.77720000000000055707, 	 270.77442320131979158759, 	 267.06840705246384004568, 	 263.36065702319120873653
5.77830000000000065796, 	 273.68803984226428838156, 	 269.97142730465611748514, 	 266.25528552495387657473
5.77939999999999987068, 	 276.55765333407009620714, 	 272.82831533929123679627, 	 269.09947817230715827463
5.78049999999999997158, 	 279.38365795200445518276, 	 275.63911516806638246635, 	 271.89486613025468386695
5.78160000000000007248, 	 282.16607274536420391087, 	 278.40449724281552335015, 	 274.64279773563367825773
5.78270000000000017337, 	 284.90458298495786948479, 	 281.12448952807881141780, 	 277.34364818066165980781
5.78380000000000027427, 	 287.59853414315875852481, 	 283.79860885549243221249, 	 279.99717285353096940526
5.78490000000000037517, 	 290.24718164007680343275, 	 286.42619462917798500712, 	 282.60288606352764873009
5.78600000000000047606, 	 292.84991196636366339590, 	 289.00669369981488898702, 	 285.16037198247033757070
5.78710000000000057696, 	 295.40634445087556514409, 	 291.53978849647393190025, 	 287.66939845613461557150
5.78820000000000067786, 	 297.91626838697868606687, 	 294.02533555458518321757, 	 290.12988039717538413242
5.78929999999999989058, 	 300.37955923030477833890, 	 296.46329822149630217609, 	 292.54185869107521966725
5.79039999999999999147, 	 302.79614440912610007217, 	 298.85372091352661527708, 	 294.90549085091055303565
5.79150000000000009237, 	 305.16599835187889766530, 	 301.19672300344234372460, 	 297.22103871558499577077
5.79260000000000019327, 	 307.48913356004965180546, 	 303.49248055191901585204, 	 299.48883492229458624934
5.79370000000000029416, 	 309.76557492413695626965, 	 305.74118825033036728200, 	 301.70923264219629800209
5.79480000000000039506, 	 311.99532854732916575813, 	 307.94301812275534757646, 	 303.88255910563992756579
5.79590000000000049596, 	 314.17836275052059136215, 	 310.09809526213734898192, 	 306.00909078962860121464
5.79700000000000059686, 	 316.31460901103190508366, 	 312.20649800974183563085, 	 308.08905396334176884920
5.79810000000000069775, 	 318.40397741208846582595, 	 314.26827523343439452219, 	 310.12264146250032581520
5.79919999999999991047, 	 320.44637501171871463157, 	 316.28346712260690765106, 	 312.11003239057629343733
5.80030000000000001137, 	 322.44171787302508391804, 	 318.25211899143283744706, 	 314.05140515514068511038
5.80140000000000011227, 	 324.38993381756455391951, 	 320.17428472668791528122, 	 315.94694087607774690696
5.80250000000000021316, 	 326.29095823441019774691, 	 322.05002233464699656906, 	 317.79681932958840206993
5.80360000000000031406, 	 328.14472723847075030790, 	 323.87938623964453199733, 	 319.60121155117491298370
5.80470000000000041496, 	 329.95117166569519895347, 	 325.66242020943917623299, 	 321.36027265748708714455
5.80580000000000051585, 	 331.71021351002917754158, 	 327.39915281829644300160, 	 323.07413682446457414699
5.80690000000000061675, 	 333.42176480283978889929, 	 329.08959562449416580421, 	 324.74291482300043298892
5.80800000000000071765, 	 335.08572811660820889301, 	 330.73374328352412021559, 	 326.36669355318014140721
5.80909999999999993037, 	 336.70199772997386844509, 	 332.33157456722557299145, 	 327.94553665260337993459
5.81020000000000003126, 	 338.27046071168689422848, 	 333.88305342522534147065, 	 329.47948529473961798431
5.81130000000000013216, 	 339.79099738711204281572, 	 335.38812928456076178918, 	 330.96855796724707943213
5.81240000000000023306, 	 341.26348038925846140046, 	 336.84673552043790323296, 	 332.41274828734935908869
5.81350000000000033396, 	 342.68777316794643184039, 	 338.25878787161133232075, 	 333.81202407219785754933
5.81460000000000043485, 	 344.06373049222509052925, 	 339.62418558443084748433, 	 335.16632955260456583346
5.81570000000000053575, 	 345.39120089033627891695, 	 340.94281446409047475754, 	 336.47558847131978154721
5.81680000000000063665, 	 346.67002817956438320834, 	 342.21454823665237654495, 	 337.73970443028400723051
5.81789999999999984936, 	 347.90005021737908919022, 	 343.43924657793303367725, 	 338.95855807834607276163
5.81899999999999995026, 	 349.08109641078056029073, 	 344.61675241956106674479, 	 340.13200531537773940727
5.82010000000000005116, 	 350.21298790342342499571, 	 345.74689299785069351856, 	 341.25987984962040400205
5.82120000000000015206, 	 351.29553882398062114589, 	 346.82947918168230216907, 	 342.34198550581959352712
5.82230000000000025295, 	 352.32854348313549053273, 	 347.86428874893277907177, 	 343.37808511118441856524
5.82340000000000035385, 	 353.31179738765058573335, 	 348.85110704789741475906, 	 344.36796570094844582854
5.82450000000000045475, 	 354.24512880826949867696, 	 349.78975387020153675621, 	 345.31144031941556704624
5.82560000000000055564, 	 355.12838561868466058513, 	 350.68006403804218962250, 	 346.20832528872000466436
5.82670000000000065654, 	 355.96141140730924234958, 	 351.52186076775421952334, 	 347.05841651537463121713
5.82779999999999986926, 	 356.74402939999038153474, 	 352.31493751074435749615, 	 347.86147283819445874542
5.82889999999999997016, 	 357.47603826051937403463, 	 353.05905302797179956542, 	 348.61721170515721723859
5.83000000000000007105, 	 358.15721770444974936254, 	 353.75393781444205387743, 	 349.32531590835537826933
5.83110000000000017195, 	 358.78733891013558832128, 	 354.39930637759994169755, 	 349.98544628428300029555
5.83220000000000027285, 	 359.36617471328821693533, 	 354.99486965578137187549, 	 350.59725491168552480303
5.83330000000000037375, 	 359.89350662133659852771, 	 355.54034408985876325460, 	 351.16039533853762577564
5.83440000000000047464, 	 360.36912791961697166698, 	 356.03545620895408774231, 	 351.67452830758048776261
5.83550000000000057554, 	 360.79284349169131473900, 	 356.47994321194585154444, 	 352.13932323391668433032
5.83660000000000067644, 	 361.16446776759408976432, 	 356.87355113604303369357, 	 352.55445704124133499135
5.83769999999999988916, 	 361.48382241515008672650, 	 357.21603252462051614202, 	 352.91961231723837499885
5.83879999999999999005, 	 361.75073493755496656377, 	 357.50714500228065162446, 	 353.23447622638269649542
5.83990000000000009095, 	 361.96503856129487530779, 	 357.74665126223470679179, 	 353.49874072023914095553
5.84100000000000019185, 	 362.12657315935257429373, 	 357.93432025323704692710, 	 353.71210394355517792064
5.84210000000000029274, 	 362.23518671170307925422, 	 358.06992902718701543563, 	 353.87427231398828553210
5.84320000000000039364, 	 362.29073674284649086985, 	 358.15326458747591686915, 	 353.98496261265540852037
5.84430000000000049454, 	 362.29309137389503803206, 	 358.18412532188989416682, 	 354.04390370058411008358
5.84540000000000059543, 	 362.24212994095199746880, 	 358.16232195542795579968, 	 354.05083779517951825255
5.84650000000000069633, 	 362.13774333733215371467, 	 358.08767818668468407850, 	 354.00552144268664278570
5.84759999999999990905, 	 361.97983427855575655485, 	 357.96003122438304444586, 	 353.90772638703759866985
5.84870000000000000995, 	 361.76831765734840473669, 	 357.77923242616822108175, 	 353.75724054404122398410
5.84980000000000011084, 	 361.50312018926678092612, 	 357.54514619014702248023, 	 353.55386508518768096110
5.85090000000000021174, 	 361.18418071245366718358, 	 357.25765354034132315064, 	 353.29742633444601551673
5.85200000000000031264, 	 360.81145778754915909303, 	 356.91665799435969574915, 	 352.98777094461320302798
5.85310000000000041354, 	 360.38492142545152319144, 	 356.52207596300200975747, 	 352.62476126810940968426
5.85420000000000051443, 	 359.90455391715960331567, 	 356.07384010004733454480, 	 352.20828123647936536145
5.85530000000000061533, 	 359.37035383830902901536, 	 355.57190367280020382168, 	 351.73823980344161554967
5.85640000000000071623, 	 358.78233803170525106907, 	 355.01624263592771058029, 	 351.21457252581512875622
5.85749999999999992895, 	 358.14054141131043706991, 	 354.40685537811043559486, 	 350.63724123650115416240
5.85860000000000002984, 	 357.44501574118265807556, 	 353.74376150814475749939, 	 350.00623330199829297271
5.85970000000000013074, 	 356.69582918870327148397, 	 353.02700178526532681644, 	 349.32156235942198918565
5.86080000000000023164, 	 355.89306723993536252237, 	 352.25663946766798062527, 	 348.58327000715780741302
5.86190000000000033253, 	 355.03683386333665339407, 	 351.43276165453329440425, 	 347.79142691724689484545
5.86300000000000043343, 	 354.12725153986252735194, 	 350.55547902246746616584, 	 346.94613186679993077632
5.86410000000000053433, 	 353.16445937423657142062, 	 349.62492305893835009556, 	 346.04750790001583027333
5.86520000000000063523, 	 352.14860974582165908942, 	 348.64124176953629330455, 	 345.09569767796318728870
5.86629999999999984794, 	 351.07986594446759909260, 	 347.60459693894927113433, 	 344.09086103435095083114
5.86739999999999994884, 	 349.95840214849454241630, 	 346.51516421574393689298, 	 343.03317543807639822262
5.86850000000000004974, 	 348.78440549335749665261, 	 345.37313574257325399230, 	 341.92283906683655914094
5.86960000000000015064, 	 347.55807900624671447076, 	 344.17872369765086659754, 	 340.76007437551078282922
5.87070000000000025153, 	 346.27964343174488703880, 	 342.93216233683057225790, 	 339.54512981740350596738
5.87180000000000035243, 	 344.94933722127933606316, 	 341.63370805734280111210, 	 338.27828004708680964541
5.87290000000000045333, 	 343.56741577016759947583, 	 340.28363869176092748603, 	 336.95982546599816487287
5.87400000000000055422, 	 342.13415093041345471647, 	 338.88225341138399926422, 	 335.59009317566511754194
5.87510000000000065512, 	 340.64983292316861707150, 	 337.42987620719065944286, 	 334.16944316856336172350
5.87619999999999986784, 	 339.11477725507694458429, 	 335.92686578964213595100, 	 332.69828045082988410286
5.87729999999999996874, 	 337.52932898464251820769, 	 334.37361805686197158138, 	 331.17705051430999674267
5.87840000000000006963, 	 335.89384955845491731452, 	 332.77054572331724102696, 	 329.60621026847280745642
5.87950000000000017053, 	 334.20869208532388938693, 	 331.11804719052480550090, 	 327.98619545052429202769
5.88060000000000027143, 	 332.47418590544174321622, 	 329.41648989670807168295, 	 326.31740889049319775950
5.88170000000000037232, 	 330.69064334709997865502, 	 327.66622109840284338134, 	 324.60023740948491877134
5.88280000000000047322, 	 328.85838368157362765487, 	 325.86759785052191773502, 	 322.83508445284138588249
5.88390000000000057412, 	 326.97775679484715283252, 	 324.02101461645747804141, 	 321.02239584175310938008
5.88500000000000067502, 	 325.04915096815682318265, 	 322.12691057041342901357, 	 319.16266170071418173393
5.88609999999999988773, 	 323.07297731721308764463, 	 320.18574809312781326298, 	 317.25639008309588007251
5.88719999999999998863, 	 321.04965221849442968960, 	 318.19799834018635920074, 	 315.30410674487399091959
5.88830000000000008953, 	 318.97960163563527657971, 	 316.16414528428794028514, 	 313.30634963602540210559
5.88940000000000019043, 	 316.86324322726164837150, 	 314.08465406610565651135, 	 311.26362273945198921865
5.89050000000000029132, 	 314.70479197626764289453, 	 311.96007359003493775162, 	 309.17613718539575984323
5.89160000000000039222, 	 312.50274780320313539050, 	 309.79090228290260711219, 	 307.04350369313829105522
5.89270000000000049312, 	 310.25516642697482438962, 	 307.57640037909322927590, 	 304.86604001872211711088
5.89380000000000059401, 	 307.96187223404194810428, 	 305.31668747655618290082, 	 302.64412303885632127276
5.89490000000000069491, 	 305.62356591103343816940, 	 303.01257795086871738022, 	 300.37858812870075553292
5.89599999999999990763, 	 303.24113204887873962434, 	 300.66513237377546374773, 	 298.07055419320744249490
5.89710000000000000853, 	 300.81540237619645949962, 	 298.27533088677256500887, 	 295.72106699959203979233
5.89820000000000010942, 	 298.34703614185730202735, 	 295.84394242203234171029, 	 293.33097636474923319838
5.89930000000000021032, 	 295.83652791037388851692, 	 293.37152878979770775913, 	 290.90092088574857598360
5.90040000000000031122, 	 293.28426048497306055651, 	 290.85850160598198499429, 	 288.43136989103277301183
5.90150000000000041211, 	 290.69057623913903398716, 	 288.30521887690889570877, 	 285.92273523475120100557
5.90260000000000051301, 	 288.05584130628386674289, 	 285.71205487431222991290, 	 283.37541816814484718634
