x [cm], 	 0.40000000000000002220, 	 2.00000000000000000000, 	 3.60000000000000008882
0.00000000000000000000, 	 0.00000000000000000000, 	 0.00000000000000000000, 	 0.00000000000000000000
5.70020000000000059970, 	 3.41722199548589600226, 	 4.83322056380202713655, 	 6.27315853558966196601
5.70130000000000070060, 	 4.32360154985626365942, 	 5.29330764427363931190, 	 6.51425038077482820853
5.70239999999999991331, 	 6.40244937658048396401, 	 6.85998769648705319923, 	 7.68033776103065957130
5.70350000000000001421, 	 9.51765364929852353271, 	 9.51526955295093834764, 	 9.90517787186644227404
5.70460000000000011511, 	 13.42079462998560757114, 	 13.03604162166836566428, 	 12.98664465548754698432
5.70570000000000021600, 	 17.95328126744112395841, 	 17.26772200141805058138, 	 16.76385692034188679145
5.70680000000000031690, 	 22.83940876310246181902, 	 21.88778736764972521200, 	 20.95195267389091497989
5.70790000000000041780, 	 27.77600359869600410434, 	 26.58989429727470721332, 	 25.30915407728667076981
5.70900000000000051870, 	 32.56305769155240170676, 	 31.19648908607537052262, 	 29.66826725654460972237
5.71010000000000061959, 	 37.14610681818244586339, 	 35.65701046452566913558, 	 33.96408817144755687423
5.71119999999999983231, 	 41.53830397421619835541, 	 39.94822058231008554685, 	 38.13857944476526995459
5.71229999999999993321, 	 45.77497184081556014235, 	 44.08936254083125305669, 	 42.18878867442499824847
5.71340000000000003411, 	 49.90011409917455154073, 	 48.11307881224948346244, 	 46.13364227580079557356
5.71450000000000013500, 	 53.95481524075582768774, 	 52.06178908690056061914, 	 50.00624127543738950408
5.71560000000000023590, 	 57.98258453640062271006, 	 55.97898748209441777135, 	 53.84066689694843432790
5.71670000000000033680, 	 62.01203868669730212559, 	 59.89369030537149285465, 	 57.66324664998601434718
5.71780000000000043769, 	 66.05900136262822286426, 	 63.82429710141008172286, 	 61.49491056159737212283
5.71890000000000053859, 	 70.13062855108758242295, 	 67.78080620120293531272, 	 65.34879254811811222226
5.72000000000000063949, 	 74.22675811838075787819, 	 71.76481254533094045200, 	 69.22856001140750947798
5.72109999999999985221, 	 78.34081379877355288954, 	 75.77012706642271666624, 	 73.12915576716551413483
5.72219999999999995310, 	 82.46182481453575974228, 	 79.78522324149837174900, 	 77.03990884865623911537
5.72330000000000005400, 	 86.57763622042550366587, 	 83.79712331300640926202, 	 80.94886666915236617115
5.72440000000000015490, 	 90.67830836646682257651, 	 87.79534097499251288355, 	 84.84672828860176707622
5.72550000000000025580, 	 94.75847226732977901520, 	 91.77448341231740869262, 	 88.72917026145171348617
5.72660000000000035669, 	 98.81795891988394942018, 	 95.73486205244938673786, 	 92.59720127449907067785
5.72770000000000045759, 	 102.86079653012789947297, 	 99.68131651689742511735, 	 96.45591175416898011008
5.72880000000000055849, 	 106.89322804462868532482, 	 103.62101911117328256751, 	 100.31239434267440913118
5.72990000000000065938, 	 110.92157352795548774793, 	 107.56115950824903393368, 	 104.17363818248382756337
5.73099999999999987210, 	 114.95058906713819624201, 	 111.50718871007771326731, 	 108.04495848220008724638
5.73209999999999997300, 	 118.98263002550105227328, 	 115.46192582044427865640, 	 111.92919162881318584368
5.73320000000000007390, 	 123.01759665922853059783, 	 119.42549279256330407861, 	 115.82662006823395017818
5.73430000000000017479, 	 127.05343918796840796404, 	 123.39583597691731142731, 	 119.73539851276892420628
5.73540000000000027569, 	 131.08688649822767047226, 	 127.36947596654516701165, 	 123.65219193270920072791
5.73650000000000037659, 	 135.11417883922155169785, 	 131.34229613761405630612, 	 127.57291451012004301901
5.73760000000000047748, 	 139.13167562144050748429, 	 135.31021210315165603788, 	 131.49337768751561839053
5.73870000000000057838, 	 143.13625735002307237664, 	 139.26963325157964845857, 	 135.40976636426836421379
5.73980000000000067928, 	 147.12551559419077307211, 	 143.21770266388156755966, 	 139.31891651466725079445
5.74089999999999989200, 	 151.09776650631152961068, 	 147.15234532570568148913, 	 143.21840871220052804347
5.74199999999999999289, 	 155.05194197843911751988, 	 151.07217666993844318313, 	 147.10651731021866339688
5.74310000000000009379, 	 158.98741476827518681603, 	 154.97632919931686501513, 	 150.98206619977511877551
5.74420000000000019469, 	 162.90375525037049442290, 	 158.86427912841566012503, 	 154.84400546483854554936
5.74530000000000029559, 	 166.80097916810794345110, 	 162.73528491227986592094, 	 158.68909413237534522523
5.74640000000000039648, 	 170.67924938148419755635, 	 166.58909771787122622300, 	 162.51850178349357634033
5.74750000000000049738, 	 174.53852798184516359470, 	 170.42607125379976196200, 	 166.33299542948961402544
5.74860000000000059828, 	 178.37840809658447938091, 	 174.24601332379882023815, 	 170.13257228075568150416
5.74970000000000069917, 	 182.19801915260327973556, 	 178.04814546211923698138, 	 173.91656085469753634243
5.75079999999999991189, 	 185.99615970784731189269, 	 181.83126460348881892060, 	 177.68381635134852558622
5.75190000000000001279, 	 189.77149275365465541654, 	 185.59397191811683569540, 	 181.43295974275480375582
5.75300000000000011369, 	 193.52272270539586429550, 	 189.33487867810521265710, 	 185.16258660553538106797
5.75410000000000021458, 	 197.24870972400523783108, 	 193.05274190701356928912, 	 188.87140677677294320347
5.75520000000000031548, 	 200.94851158047740113943, 	 196.74651996420706723256, 	 192.55830778018560067721
5.75630000000000041638, 	 204.62136749364535148743, 	 200.41536347996327549481, 	 196.22235576262164613581
5.75740000000000051728, 	 208.26664780737286264412, 	 204.05856660892862919354, 	 199.86275593138049089248
5.75850000000000061817, 	 211.88379274842512245414, 	 207.67550354719102756462, 	 203.47879546094105762677
5.75960000000000071907, 	 215.47225721641339646339, 	 211.26556885587677925287, 	 207.06978654229411063170
5.76069999999999993179, 	 219.03147083609542278282, 	 214.82813250803050664217, 	 210.63502130308324922225
5.76180000000000003268, 	 222.56081609474210836197, 	 218.36251360507921503995, 	 214.17374334829085569254
5.76290000000000013358, 	 226.05962251905123139295, 	 221.86797152158865742422, 	 217.68513628627056277764
5.76400000000000023448, 	 229.52717308463792278417, 	 225.34371113583597434626, 	 221.16832692471132304490
5.76510000000000033538, 	 232.96271817553932237388, 	 228.78889722437864406857, 	 224.62239850737447000029
5.76620000000000043627, 	 236.36549255079029308035, 	 232.20267308353112412078, 	 228.04640915109169441166
5.76730000000000053717, 	 239.73473153368468047120, 	 235.58417895061651847755, 	 231.43941073681733655576
5.76840000000000063807, 	 243.06968366361536482145, 	 238.93256686512748387941, 	 234.80046456044419755926
5.76949999999999985079, 	 246.36961831761550456577, 	 242.24701004073139642969, 	 238.12865156249111464604
5.77059999999999995168, 	 249.63382812436572066872, 	 245.52670636099242074124, 	 241.42307660165224092452
5.77170000000000005258, 	 252.86162709325077457834, 	 248.77087692171818389397, 	 244.68286763222874924395
5.77280000000000015348, 	 256.05234607476461405895, 	 251.97876139334471190523, 	 247.90717155760853529500
5.77390000000000025437, 	 259.20532737758344410395, 	 255.14961226240316705116, 	 251.09514884217344388162
5.77500000000000035527, 	 262.31992012030207206408, 	 258.28268975967569076602, 	 254.24596871205469028610
5.77610000000000045617, 	 265.39547733260565109958, 	 261.37725866067160040984, 	 257.35880614883615180588
5.77720000000000055707, 	 268.43135511658954328595, 	 264.43258732009951472719, 	 260.43284097396036713690
5.77830000000000065796, 	 271.42691355574152112240, 	 267.44794872759285908614, 	 263.46725917696636543042
5.77939999999999987068, 	 274.38151919576262116607, 	 270.42262339619520616907, 	 266.46125584914670980652
5.78049999999999997158, 	 277.29454732530876981400, 	 273.35590146181141335546, 	 269.41403625282333678115
5.78160000000000007248, 	 280.16538244295338699885, 	 276.24708296274525309855, 	 272.32481598859709492899
5.78270000000000017337, 	 282.99341865336060664049, 	 279.09547888711841778786, 	 275.19282350532716918678
5.78380000000000027427, 	 285.77806230861375524910, 	 281.90041523672095991060, 	 278.01730612583099855328
5.78490000000000037517, 	 288.51873704202699855159, 	 284.66123964634715548527, 	 280.79753796936796561567
5.78600000000000047606, 	 291.21488914836407957409, 	 287.37732786723699973663, 	 283.53282663508264249685
5.78710000000000057696, 	 293.86599095203973774915, 	 290.04808766589167134953, 	 286.22251687051078761215
5.78820000000000067786, 	 296.47154104957428444322, 	 292.67295885835841318112, 	 288.86598977554081102426
5.78929999999999989058, 	 299.03106110063208689098, 	 295.25140933460443193326, 	 291.46265814315410125346
5.79039999999999999147, 	 301.54409073629176418763, 	 297.78292915956501474284, 	 294.01196043036941318860
5.79150000000000009237, 	 304.01018280339792454470, 	 300.26702522738293055227, 	 296.51335565363513069315
5.79260000000000019327, 	 306.42890055029931772879, 	 302.70321818115053247311, 	 298.96632066767591595635
5.79370000000000029416, 	 308.79981729677189150607, 	 305.09104212630001029538, 	 301.37035016737451087465
5.79480000000000039506, 	 311.12251816617197164305, 	 307.43004662747927113742, 	 303.72495883282050499474
5.79590000000000049596, 	 313.39660291677790837639, 	 309.71979991516877817048, 	 306.02968457375675370713
5.79700000000000059686, 	 315.62168884802582624616, 	 311.95989217961687245406, 	 308.28409182292671175674
5.79810000000000069775, 	 317.79741303503266180996, 	 314.14993813546294632033, 	 310.48777412080642079673
5.79919999999999991047, 	 319.92343355044891950456, 	 316.28957847562207916781, 	 312.64035562917098332036
5.80030000000000001137, 	 321.99942969104029089067, 	 318.37848021587848279523, 	 314.74149155583398851377
5.80140000000000011227, 	 324.02510144762356958381, 	 320.41633617108215048574, 	 316.79086769406546864047
5.80250000000000021316, 	 326.00016853285700335618, 	 322.40286389249058629503, 	 318.78819937234652570623
5.80360000000000031406, 	 327.92436925259335112059, 	 324.33780437504788096703, 	 320.73323010626438644977
5.80470000000000041496, 	 329.79745942637424604982, 	 326.22092076669895277519, 	 322.62573018676073388633
5.80580000000000051585, 	 331.61921147336585136145, 	 328.05199722143493090698, 	 324.46549536175427874696
5.80690000000000061675, 	 333.38941370484951676190, 	 329.83083795750957278869, 	 326.25234569242746829332
5.80800000000000071765, 	 335.10786981082668489762, 	 331.55726652116987906993, 	 327.98612460180260086418
5.80909999999999993037, 	 336.77439849552672512800, 	 333.23112521541611386056, 	 329.66669808634833316319
5.81020000000000003126, 	 338.38883320124620013303, 	 334.85227463126005886807, 	 331.29395403314589430011
5.81130000000000013216, 	 339.95102185878596401380, 	 336.42059321367645452483, 	 332.86780157553715753238
5.81240000000000023306, 	 341.46082661274431302445, 	 337.93597680321647658275, 	 334.38817042688179981269
5.81350000000000033396, 	 342.91812348768468154958, 	 339.39833811340730562733, 	 335.85501015135349689444
5.81460000000000043485, 	 344.32280198231654821939, 	 340.80760612723224767251, 	 337.26828935229133321627
5.81570000000000053575, 	 345.67476459499880547810, 	 342.16372541437993959335, 	 338.62799477918565571599
5.81680000000000063665, 	 346.97392629979310640920, 	 343.46665539153741519840, 	 339.93413037762070416647
5.81789999999999984936, 	 348.22021400045179007066, 	 344.71636955594306073181, 	 341.18671631115620357377
5.81899999999999995026, 	 349.41356598690458667988, 	 345.91285471982956778447, 	 342.38578798264580882460
5.82010000000000005116, 	 350.55393141177040661205, 	 347.05611026627542514689, 	 343.53139507645062167285
5.82120000000000015206, 	 351.64126979626780666877, 	 348.14614743818225406358, 	 344.62360063451399128098
5.82230000000000025295, 	 352.67555056716082617640, 	 349.18298866328092344702, 	 345.66248017019222515955
5.82340000000000035385, 	 353.65675262029651548801, 	 350.16666691099908348406, 	 346.64812081648545927237
5.82450000000000045475, 	 354.58486390305546365198, 	 351.09722507323903073484, 	 347.58062050162419609478
5.82560000000000055564, 	 355.45988100810569676469, 	 351.97471536114846912824, 	 348.46008714515267001843
5.82670000000000065654, 	 356.28180877342924759432, 	 352.79919871271050624273, 	 349.28663787013044839114
5.82779999999999986926, 	 357.05065988670259002902, 	 353.57074420905451006547, 	 350.06039822930591753902
5.82889999999999997016, 	 357.76645449384500352608, 	 354.28942849880888843472, 	 350.78150144361217144251
5.83000000000000007105, 	 358.42921981140858633808, 	 354.95533522933408221434, 	 351.45008765037601961012
5.83110000000000017195, 	 359.03898973456637122581, 	 355.56855446363817918609, 	 352.06630310078804768636
5.83220000000000027285, 	 359.59580432263493321443, 	 356.12918189509122157688, 	 352.63029904176863738030
5.83330000000000037375, 	 360.09970761205642020286, 	 356.63731408866163974380, 	 353.14222018668175451239
5.83440000000000047464, 	 360.55073363904307370831, 	 357.09303033795157489294, 	 353.60218942323211877010
5.83550000000000057554, 	 360.94891456946675134532, 	 357.49641397589186908590, 	 354.01034989945503639319
5.83660000000000067644, 	 361.29430628079751386394, 	 357.84757669746551300705, 	 354.36687430650800934018
5.83769999999999988916, 	 361.58699022314090143482, 	 358.14665591504893882302, 	 354.67195559075969413243
5.83879999999999999005, 	 361.82706208572375317090, 	 358.39380124218689616100, 	 354.92579341848028207096
5.83990000000000009095, 	 362.01461875950542435021, 	 358.58916025485262935035, 	 355.12858152572664494073
5.84100000000000019185, 	 362.14974977514327747485, 	 358.73286967069407182862, 	 355.28050082915086704816
5.84210000000000029274, 	 362.23253558926955975039, 	 358.82505412159110846915, 	 355.38171955395375789521
5.84320000000000039364, 	 362.26305143138546327464, 	 358.86583071066610273192, 	 355.43239802183404663083
5.84430000000000049454, 	 362.24137320430770614621, 	 358.85531530457927829048, 	 355.43269399168389099941
5.84540000000000059543, 	 362.16758170257764959388, 	 358.79362658693730736559, 	 355.38276537900969742623
5.84650000000000069633, 	 362.04176377480399651176, 	 358.68088699226569815437, 	 355.28277070632606182699
5.84759999999999990905, 	 361.86401159547057204691, 	 358.51722195697834649764, 	 355.13286863646635538316
5.84870000000000000995, 	 361.63442157478709759744, 	 358.30275898267052525625, 	 354.93321760971804224027
5.84980000000000011084, 	 361.35309387002484982077, 	 358.03762744037101128924, 	 354.68397626293335633818
5.85090000000000021174, 	 361.02013283566253676327, 	 357.72195939699241762355, 	 354.38530473943615106691
5.85200000000000031264, 	 360.63564814406726100060, 	 357.35589107126435237660, 	 354.03736634254300952307
5.85310000000000041354, 	 360.19975587155676066686, 	 356.93956406553365923173, 	 353.64032861130624496582
5.85420000000000051443, 	 359.71257877271762026794, 	 356.47312549901141665032, 	 353.19436300341760670563
5.85530000000000061533, 	 359.17424528538691674839, 	 355.95672658405754873456, 	 352.69964287762780941193
5.85640000000000071623, 	 358.58488734181111112775, 	 355.39051981275935077065, 	 352.15634010919393404038
5.85749999999999992895, 	 357.94463754406717725942, 	 354.77465545521681633545, 	 351.56462115518269229142
5.85860000000000002984, 	 357.25362648532473031082, 	 354.10927829003031774846, 	 350.92464352281126593880
5.85970000000000013074, 	 356.51198090583750399674, 	 353.39452536049793707207, 	 350.23655343425576802474
5.86080000000000023164, 	 355.71982311304441282118, 	 352.63052526060323543788, 	 349.50048518738407210549
5.86190000000000033253, 	 354.87727173686738524339, 	 351.81739901073177634316, 	 348.71656219422851563650
5.86300000000000043343, 	 353.98444350865401020201, 	 350.95526215003684455951, 	 347.88489927840129212200
5.86410000000000053433, 	 353.04145554656031436025, 	 350.04422744891303409531, 	 347.00560561337613307842
5.86520000000000063523, 	 352.04842761054214861360, 	 349.08440762178958038930, 	 346.07878766461016084577
5.86629999999999984794, 	 351.00548387712478870526, 	 348.07591748890541794026, 	 345.10455151077468372023
5.86739999999999994884, 	 349.91275392479087713582, 	 347.01887524647429472680, 	 344.08300430838170314018
5.86850000000000004974, 	 348.77037311908566152852, 	 345.91340317666077908143, 	 343.01425545885371093391
5.86960000000000015064, 	 347.57848299346676412824, 	 344.75962845991602989670, 	 341.89841802786810376347
5.87070000000000025153, 	 346.33723194041397164256, 	 343.55768429420817255959, 	 340.73561030991430698123
5.87180000000000035243, 	 345.04677593863760876047, 	 342.30771087991860213151, 	 339.52595690076162782134
5.87290000000000045333, 	 343.70727872909606048779, 	 341.00985558013684340040, 	 338.26958861467608130624
5.87400000000000055422, 	 342.31891102510877544773, 	 339.66427185502277552587, 	 336.96664101898670651281
5.87510000000000065512, 	 340.88184881104325540946, 	 338.27111713205357546030, 	 335.61725194551587492242
5.87619999999999986784, 	 339.39627124976345839968, 	 336.83055028787129003831, 	 334.22155878876850465531
5.87729999999999996874, 	 337.86235891627012506433, 	 335.34272958274971188075, 	 332.77969643685986511628
5.87840000000000006963, 	 336.28029291407796108615, 	 333.80781166479027888272, 	 331.29179639286388692199
5.87950000000000017053, 	 334.65025507826777584341, 	 332.22595185287337926638, 	 329.75798723215609697945
5.88060000000000027143, 	 332.97242911049812619240, 	 330.59730550403321558406, 	 328.17839615293189581280
5.88170000000000037232, 	 331.24700224690559480223, 	 328.92203000228101927860, 	 326.55315113854089759116
5.88280000000000047322, 	 329.47416701195055566131, 	 327.20028687477434914399, 	 324.88238327083070089429
5.88390000000000057412, 	 327.65412273270351306564, 	 325.43224366546877490691, 	 323.16622881743222706064
5.88500000000000067502, 	 325.78707658100211119745, 	 323.61807523847272705098, 	 321.40483060333713183354
5.88609999999999988773, 	 323.87324383395792892770, 	 321.75796412404565671750, 	 319.59833833373397737887
5.88719999999999998863, 	 321.91284713063879507899, 	 319.85209949865992484774, 	 317.74690719234689595396
5.88830000000000008953, 	 319.90611596062740318303, 	 317.90067778946740872925, 	 315.85070156459380541492
5.88940000000000019043, 	 317.85372393176157856942, 	 315.90385345149894646966, 	 313.91000598893890582985
5.89050000000000029132, 	 315.76115877057867464828, 	 313.86252931330636783969, 	 311.92452155374161293366
5.89160000000000039222, 	 313.62560693745604112337, 	 311.77699353507790647200, 	 309.89397520927809637215
5.89270000000000049312, 	 311.44492373907468163452, 	 309.64605039005158459986, 	 307.81801596351419902931
5.89380000000000059401, 	 309.21811259406041472175, 	 307.46908034313327107157, 	 305.69642290806081064147
5.89490000000000069491, 	 306.94519221600234004654, 	 305.24612759607049383703, 	 303.52922791730526341780
5.89599999999999990763, 	 304.62662485126264755309, 	 302.97771823242362643214, 	 301.31695943246518254455
5.89710000000000000853, 	 302.26309319849741541475, 	 300.66460559745922864749, 	 299.06034913027747279557
5.89820000000000010942, 	 299.85530725164670684535, 	 298.30755092886266766072, 	 296.76011632958966401930
5.89930000000000021032, 	 297.40387295361091446466, 	 295.90719924666262841129, 	 294.41690704755671958992
5.90040000000000031122, 	 294.90931216846684037591, 	 293.46411403552014007801, 	 292.03131191195438987052
5.90150000000000041211, 	 292.37207009365204157803, 	 290.97875689204420268652, 	 289.60380367429320358497
5.90260000000000051301, 	 289.79252569723058741147, 	 288.45151331212201739618, 	 287.13478534384290696835
5.90370000000000061391, 	 287.17101898764502720951, 	 285.88271199709635084218, 	 284.62458115113548728914
