x [cm], 	 0.69214285714285717077, 	 48.45000000000000284217, 	 96.20785714285715073402
0.00000000000000000000, 	 0.00000000000000000000, 	 0.00000000000000000000, 	 0.00000000000000000000
5.70020000000000059970, 	 2.12036878060111178002, 	 6.71570424536669552396, 	 12.00400875750718121537
5.70130000000000070060, 	 1.96218835167020544397, 	 6.55637704128717491159, 	 11.97300674101930972881
5.70239999999999991331, 	 1.80521266713848338448, 	 6.39797194489610010493, 	 11.94181509071292168755
5.70350000000000001421, 	 1.64945936328899911416, 	 6.24050735415827162456, 	 11.91044176498916762341
5.70460000000000011511, 	 1.49494678079694098827, 	 6.08400143356288847230, 	 11.87889407017022946889
5.70570000000000021600, 	 1.34169381903741213868, 	 5.92847211605617108177, 	 11.84717920083440567680
5.70680000000000031690, 	 1.18971984681869513700, 	 5.77393710469228960136, 	 11.81530411388128243289
5.70790000000000041780, 	 1.03904460678921872763, 	 5.62041387386322366382, 	 11.78327502734457432609
5.70900000000000051870, 	 0.88968811997121299839, 	 5.46791967002038159507, 	 11.75109744899756414327
5.71010000000000061959, 	 0.74167060397491002544, 	 5.31647151212714597079, 	 11.71877646779139681144
5.71119999999999983231, 	 0.59501240155488099859, 	 5.16608619198951046769, 	 11.68631683068722360019
5.71229999999999993321, 	 0.44973391773062848520, 	 5.01678027423353078973, 	 11.65372292997264302983
5.71340000000000003411, 	 0.30585556442345418482, 	 4.86857009572004706399, 	 11.62099884573150276879
5.71450000000000013500, 	 0.16339771167165212384, 	 4.72147176452498040788, 	 11.58814854962597351573
5.71560000000000023590, 	 0.02238064457501370147, 	 4.57550115884010999423, 	 11.55517598239751642097
5.71670000000000033680, 	 -0.11717547458834805252, 	 4.43067392584301700253, 	 11.52208506406427623858
5.71780000000000043769, 	 -0.25525063515540030723, 	 4.28700548031189221376, 	 11.48887970356774168579
5.71890000000000053859, 	 -0.39182500468956260598, 	 4.14451100297182772891, 	 11.45556381153212477386
5.72000000000000063949, 	 -0.52687897875573508344, 	 4.00320543875436651859, 	 11.42214131239196817091
5.72109999999999985221, 	 -0.66039327743581954788, 	 3.86310349514455086961, 	 11.38861615394522885936
5.72219999999999995310, 	 -0.79234882088174130033, 	 3.72421964071117672646, 	 11.35499231386334173521
5.72330000000000005400, 	 -0.92272689903458215976, 	 3.58656810385284918752, 	 11.32127380337354694007
5.72440000000000015490, 	 -1.05150912005411067973, 	 3.45016287175881064542, 	 11.28746466857611530088
5.72550000000000025580, 	 -1.17867737851113441039, 	 3.31501768957009979033, 	 11.25356898990600740262
5.72660000000000035669, 	 -1.30421330820334135936, 	 3.18114605972354436147, 	 11.21959088021160155790
5.72770000000000045759, 	 -1.42808038979560336657, 	 3.04856124146221896254, 	 11.18553448185631360445
5.72880000000000055849, 	 -1.55027517939478753917, 	 2.91727625049824501602, 	 11.15140396317672077942
5.72990000000000065938, 	 -1.67081927506469352096, 	 2.78730385881591180564, 	 11.11720351456305699855
5.73099999999999987210, 	 -1.78969809199668206112, 	 2.65865659460464875963, 	 11.08293734436878175131
5.73209999999999997300, 	 -1.90689742599610578822, 	 2.53134674231311151971, 	 11.04860967480606959157
5.73320000000000007390, 	 -2.02239538644436311898, 	 2.40538634282452656876, 	 11.01422473794301915007
5.73430000000000017479, 	 -2.13618608368082707472, 	 2.28078719378542782437, 	 10.97978677188517515617
5.73540000000000027569, 	 -2.24817910677649157591, 	 2.15756085015409659889, 	 10.94530001719758338652
5.73650000000000037659, 	 -2.35831136551954445579, 	 2.03571862498302236233, 	 10.91076871360272093625
5.73760000000000047748, 	 -2.46656349371984617846, 	 1.91527159028334459379, 	 10.87619709697356817912
5.73870000000000057838, 	 -2.57296578774598971862, 	 1.79623057782116291037, 	 10.84158939662873955001
5.73980000000000067928, 	 -2.67755158220669819968, 	 1.67860617973909564959, 	 10.80694983292733546421
5.74089999999999989200, 	 -2.78029473006781691069, 	 1.56240874876154811624, 	 10.77228261515443641372
5.74199999999999999289, 	 -2.88117976867270009222, 	 1.44764839788635990558, 	 10.73759193968331793201
5.74310000000000009379, 	 -2.98020713387859270682, 	 1.33433499980728376144, 	 10.70288198839729787437
5.74420000000000019469, 	 -3.07733870629726125046, 	 1.22247818655911211216, 	 10.66815692735204024189
5.74530000000000029559, 	 -3.17252458443079676798, 	 1.11208734987877910783, 	 10.63342090565814324066
5.74640000000000039648, 	 -3.26577389625207725743, 	 1.00317164251761625771, 	 10.59867780688538729805
5.74750000000000049738, 	 -3.35708735330228069671, 	 0.89573998037805580008, 	 10.56393073857606346166
5.74860000000000059828, 	 -3.44643750550964833579, 	 0.78980104511474780171, 	 10.52918390610146204267
5.74970000000000069917, 	 -3.53385595330595103647, 	 0.68536328682709013460, 	 10.49444119179967138678
5.75079999999999991189, 	 -3.61934266483575628470, 	 0.58243492666836471638, 	 10.45970672341940854722
5.75190000000000001279, 	 -3.70289908312663484935, 	 0.48102395948513898549, 	 10.42498485859955614785
5.75300000000000011369, 	 -3.78455468688155693968, 	 0.38113815669188882973, 	 10.39028008924133850144
5.75410000000000021458, 	 -3.86427903595934907344, 	 0.28278506937133351951, 	 10.35559694408457609427
5.75520000000000031548, 	 -3.94205831717790822211, 	 0.18597203163898712308, 	 10.32093988293205200080
5.75630000000000041638, 	 -4.01787394448203460939, 	 0.09070616429117990542, 	 10.28631335548806902125
5.75740000000000051728, 	 -4.09170874907523884900, 	 -0.00300562180597569546, 	 10.25172176907777732424
5.75850000000000061817, 	 -4.16357213817700611003, 	 -0.09515662318412518306, 	 10.21716943580100611655
5.75960000000000071907, 	 -4.23354290212549955186, 	 -0.18574034245970050261, 	 10.18266055970318006985
5.76069999999999993179, 	 -4.30190623209770706126, 	 -0.27475048826949127756, 	 10.14819923819663038955
5.76180000000000003268, 	 -4.36857587172335293246, 	 -0.36218097614198357936, 	 10.11378946902915743067
5.76290000000000013358, 	 -4.43349945669792866454, 	 -0.44802592981578570619, 	 10.07943515971328984904
5.76400000000000023448, 	 -4.49664070390878567451, 	 -0.53227968266701775057, 	 10.04514013789433768409
5.76510000000000033538, 	 -4.55797507060854023564, 	 -0.61493677935462165429, 	 10.01090816176752973377
5.76620000000000043627, 	 -4.61750358329149257486, 	 -0.69599197755213271233, 	 9.97674293000438439094
5.76730000000000053717, 	 -4.67522129157187560367, 	 -0.77544024965285451856, 	 9.94264809087407996913
5.76840000000000063807, 	 -4.73110064326687318470, 	 -0.85327678546317731190, 	 9.90862725039777814118
5.76949999999999985079, 	 -4.78512340513591816205, 	 -0.92949699670690877351, 	 9.87468397947666787218
5.77059999999999995168, 	 -4.83727362251063652820, 	 -1.00409652345726652101, 	 9.84082182000199168215
5.77170000000000005258, 	 -4.88747244264944402659, 	 -1.07707124220014072158, 	 9.80704428999777810816
5.77280000000000015348, 	 -4.93571860664009598452, 	 -1.14841727511613056478, 	 9.77335488787173645164
5.77390000000000025437, 	 -4.98202493883979258271, 	 -1.21813100015394515374, 	 9.73975709586212090585
5.77500000000000035527, 	 -5.02639448061793014944, 	 -1.28620906024615910823, 	 9.70625438277247809538
5.77610000000000045617, 	 -5.06882641345548812239, 	 -1.35264837065283605178, 	 9.67285020608474077619
5.77720000000000055707, 	 -5.10931896132694873813, 	 -1.41744612455292950948, 	 9.63954801353632184657
5.77830000000000065796, 	 -5.14787048534731450644, 	 -1.48059979663024821050, 	 9.60635124423998121301
5.77939999999999987068, 	 -5.18447833461015683554, 	 -1.54210714462328768448, 	 9.57326332941735458348
5.78049999999999997158, 	 -5.21913885195293758557, 	 -1.60196620939355982571, 	 9.54028769280882649184
5.78160000000000007248, 	 -5.25185389448903716669, 	 -1.66017531347981162071, 	 9.50742775081412538896
5.78270000000000017337, 	 -5.28250533547237122178, 	 -1.71673305688084032461, 	 9.47468691241028615480
5.78380000000000027427, 	 -5.31102441943006642333, 	 -1.77163831138619642935, 	 9.44206857888628192654
5.78490000000000037517, 	 -5.33750402971514681383, 	 -1.82489021431621134539, 	 9.40957614342706527566
5.78600000000000047606, 	 -5.36197693373694050933, 	 -1.87648816199525203530, 	 9.37721299057395540899
5.78710000000000057696, 	 -5.38446359125685614089, 	 -1.92643180429881599736, 	 9.34498249558333071718
5.78820000000000067786, 	 -5.40497835164520079587, 	 -1.97472103914630658927, 	 9.31288802370136892250
5.78929999999999989058, 	 -5.42353399192525387207, 	 -2.02135600607736831691, 	 9.28093292936922686920
5.79039999999999999147, 	 -5.44014263819984922321, 	 -2.06633708086975875773, 	 9.24912055537029154095
5.79150000000000009237, 	 -5.45481418051351507614, 	 -2.10966487083943032843, 	 9.21745423192914969945
5.79260000000000019327, 	 -5.46755676646537036589, 	 -2.15134021094115501782, 	 9.18593727577036389675
5.79370000000000029416, 	 -5.47837751919522286670, 	 -2.19136415697035058514, 	 9.15457298914415495972
5.79480000000000039506, 	 -5.48728219390184612791, 	 -2.22973797676134433132, 	 9.12336465882535208038
5.79590000000000049596, 	 -5.49427548419067601770, 	 -2.26646314379314173237, 	 9.09231555509156486039
5.79700000000000059686, 	 -5.49936054078687863722, 	 -2.30154133475715161339, 	 9.06142893068621191333
5.79810000000000069775, 	 -5.50253881864655181033, 	 -2.33497442638326369035, 	 9.03070801977187542775
5.79919999999999991047, 	 -5.50381187378685954315, 	 -2.36676448909745573701, 	 9.00015603687926102339
5.80030000000000001137, 	 -5.50318322372822166244, 	 -2.39691378491693329877, 	 8.96977617585689301904
5.80140000000000011227, 	 -5.50066178484120804626, 	 -2.42542476978191645642, 	 8.93957160882650114786
5.80250000000000021316, 	 -5.49620124476550309112, 	 -2.45230008780044927974, 	 8.90954548514883448718
5.80360000000000031406, 	 -5.48977987571644110432, 	 -2.47754256620157020663, 	 8.87970093040447139288
5.80470000000000041496, 	 -5.48139325568833335467, 	 -2.50115522142958068841, 	 8.85004104539394376161
5.80580000000000051585, 	 -5.47104018700398420094, 	 -2.52314125658791255091, 	 8.82056890516126301804
5.80690000000000061675, 	 -5.45872144445225959686, 	 -2.54350405565171744371, 	 8.79128755804456751832
5.80800000000000071765, 	 -5.44443640216905855311, 	 -2.56224719677695667031, 	 8.76220002475729486946
5.80909999999999993037, 	 -5.42818379128239136833, 	 -2.57937444386313696754, 	 8.73330929750280304802
5.81020000000000003126, 	 -5.40996241895770335617, 	 -2.59488974420655704733, 	 8.70461833912488636145
5.81130000000000013216, 	 -5.38977057960488803445, 	 -2.60879724156374104282, 	 8.67613008229615445543
5.81240000000000023306, 	 -5.36760603631943755687, 	 -2.62110124668922983560, 	 8.64784742874569545279
5.81350000000000033396, 	 -5.34346766013160756614, 	 -2.63180626584793708744, 	 8.61977323588198629523
5.81460000000000043485, 	 -5.31736199524585462228, 	 -2.64091696413850751668, 	 8.59190995884757668932
5.81570000000000053575, 	 -5.28927446089004593688, 	 -2.64843819672564784184, 	 8.56426048368341241712
5.81680000000000063665, 	 -5.25919288834549991662, 	 -2.65437497006887923590, 	 8.53682758147763109946
5.81789999999999984936, 	 -5.22710323762846851281, 	 -2.65873248530532713119, 	 8.50961378551492408917
5.81899999999999995026, 	 -5.19299126911386643712, 	 -2.66151606533734330640, 	 8.48262157751803869132
5.82010000000000005116, 	 -5.15684331288028197093, 	 -2.66273125732935556087, 	 8.45585345240478325479
5.82120000000000015206, 	 -5.11864617204765082192, 	 -2.66238367092410443959, 	 8.42931194467235123113
5.82230000000000025295, 	 -5.07838811200265460855, 	 -2.66047913289427340189, 	 8.40299963306453534528
5.82340000000000035385, 	 -5.03606232897765515588, 	 -2.65702358997352527936, 	 8.37691913256093911855
5.82450000000000045475, 	 -4.99165545027011159362, 	 -2.65202288404344477257, 	 8.35107308001644810247
5.82560000000000055564, 	 -4.94515609641752984516, 	 -2.64548280298087190587, 	 8.32546411767207139576
5.82670000000000065654, 	 -4.89655164493458272545, 	 -2.63740859460628307431, 	 8.30009487711689786238
5.82779999999999986926, 	 -4.84582984131124838711, 	 -2.62780636181105764493, 	 8.27496796510271437342
5.82889999999999997016, 	 -4.79297737285668290497, 	 -2.61668272154561565301, 	 8.25008595182585580119
5.83000000000000007105, 	 -4.73797599309539130275, 	 -2.60404442835298866044, 	 8.22545135008934558130
5.83110000000000017195, 	 -4.68081059772333318847, 	 -2.58989801884377079944, 	 8.20106654889034913936
5.83220000000000027285, 	 -4.62146851710873463048, 	 -2.57425024706006144726, 	 8.17693392600158475148
5.83330000000000037375, 	 -4.55993393748495012829, 	 -2.55710787643426584737, 	 8.15305585669185184372
5.83440000000000047464, 	 -4.49619445857253641208, 	 -2.53847771226539631328, 	 8.12943465521734154322
5.83550000000000057554, 	 -4.43023465087982959432, 	 -2.51836661668366978972, 	 8.10607256877197990264
5.83660000000000067644, 	 -4.36203923902552936909, 	 -2.49678149315696051858, 	 8.08297177626854335131
5.83769999999999988916, 	 -4.29159172309253467148, 	 -2.47372927494672767423, 	 8.06013439150951960244
5.83879999999999999005, 	 -4.21887481388764395973, 	 -2.44921691443536326815, 	 8.03756247074557350629
5.83990000000000009095, 	 -4.14387211186653736661, 	 -2.42325135632715804590, 	 8.01525801581085417524
5.84100000000000019185, 	 -4.06656809368476857003, 	 -2.39583949435786669468, 	 7.99322297550255189691
5.84210000000000029274, 	 -3.98694763100710947157, 	 -2.36698811432480216155, 	 7.97145924496817670502
5.84320000000000039364, 	 -3.90499586255273767321, 	 -2.33670376131079127191, 	 7.94996866441842353623
5.84430000000000049454, 	 -3.82069813654220302723, 	 -2.30499235818158076938, 	 7.92875289820008255504
5.84540000000000059543, 	 -3.73403998859609931316, 	 -2.27185796511142079623, 	 7.90781337716266907734
5.84650000000000069633, 	 -3.64500721728685528333, 	 -2.23729825978601226666, 	 7.88715196734763779318
5.84759999999999990905, 	 -3.55358600440145044885, 	 -2.20133378380101030203, 	 7.86677040426050488975
5.84870000000000000995, 	 -3.45976327136749350899, 	 -2.16399790758799026591, 	 7.84667026349473673008
5.84980000000000011084, 	 -3.36352679018842559699, 	 -2.12525950283407949470, 	 7.82685300268546768621
5.85090000000000021174, 	 -3.26486513117402221695, 	 -2.08513625142071568064, 	 7.80731999087395500680
5.85200000000000031264, 	 -3.16376759659821837900, 	 -2.04363461212207653261, 	 7.78807253958543199701
5.85310000000000041354, 	 -3.06022411236087510389, 	 -2.00076090889970581443, 	 7.76911193089741392015
5.85420000000000051443, 	 -2.95422521623498424148, 	 -1.95652135262035220542, 	 7.75043935016046248165
5.85530000000000061533, 	 -2.84576212396298444673, 	 -1.91092201837654096508, 	 7.73205589805463855413
5.85640000000000071623, 	 -2.73482699217174740625, 	 -1.86396882749219550135, 	 7.71396299116471872992
5.85749999999999992895, 	 -2.62141310531079474444, 	 -1.81566754177040734497, 	 7.69616207670312757472
5.85860000000000002984, 	 -2.50551487736583577970, 	 -1.76602376650883297060, 	 7.67865461183167852255
5.85970000000000013074, 	 -2.38712777425754429927, 	 -1.71504295131266926155, 	 7.66144197578403840510
5.86080000000000023164, 	 -2.26624822033162853785, 	 -1.66273038108849013916, 	 7.64452584575621685303
5.86190000000000033253, 	 -2.14287355735259410494, 	 -1.60909115645779499104, 	 7.62790794893254098241
5.86300000000000043343, 	 -2.01700215055670639686, 	 -1.55413017458343905020, 	 7.61158978890478987722
5.86410000000000053433, 	 -1.88863360041143635293, 	 -1.49785212758271257805, 	 7.59557232714911201299
5.86520000000000063523, 	 -1.75776882364566278127, 	 -1.44026151601136609415, 	 7.57985623066348335186
5.86629999999999984794, 	 -1.62441001101654802774, 	 -1.38136265736995755837, 	 7.56444236462288976952
5.86739999999999994884, 	 -1.48856055290134214886, 	 -1.32115967792610633502, 	 7.54933173597272766386
5.86850000000000004974, 	 -1.35022497527124496486, 	 -1.25965648887265935230, 	 7.53452543198418034365
5.86960000000000015064, 	 -1.20940900512220972374, 	 -1.19685677574794535616, 	 7.52002460346941514757
5.87070000000000025153, 	 -1.06611971299684937797, 	 -1.13276402005175480525, 	 7.50583038825509429870
5.87180000000000035243, 	 -0.92036555760536642445, 	 -1.06738151681179505026, 	 7.49194389295313012411
5.87290000000000045333, 	 -0.77215634994196424845, 	 -1.00071236539392716125, 	 7.47836620150729380896
5.87400000000000055422, 	 -0.62150318878438004511, 	 -0.93275943590184506871, 	 7.46509840782881095578
5.87510000000000065512, 	 -0.46841843586284565015, 	 -0.86352535833742971594, 	 7.45214160270261327668
5.87619999999999986784, 	 -0.31291579120300577754, 	 -0.79301256161492283958, 	 7.43949682135730583354
5.87729999999999996874, 	 -0.15501034606200894683, 	 -0.72122329292860498651, 	 7.42716506152965383336
5.87840000000000006963, 	 0.00528142693743695411, 	 -0.64815959830167690914, 	 7.41514729497177693673
5.87950000000000017053, 	 0.16794172333758555782, 	 -0.57382327993647586073, 	 7.40344447165071262162
5.88060000000000027143, 	 0.33295143903790441753, 	 -0.49821592608164516625, 	 7.39205752235888358115
5.88170000000000037232, 	 0.50029014091478363202, 	 -0.42133896109537910535, 	 7.38098736121318399483
5.88280000000000047322, 	 0.66993604291851815979, 	 -0.34319364142563740794, 	 7.37023488842185514613
5.88390000000000057412, 	 0.84186602056906645331, 	 -0.26378099628292839274, 	 7.35980099337035653662
5.88500000000000067502, 	 1.01605565509235673538, 	 -0.18310184584558153453, 	 7.34968655795053837920
5.88609999999999988773, 	 1.19247925499977425190, 	 -0.10115688155162527728, 	 7.33989246001169703959
5.88719999999999998863, 	 1.37110985271375462879, 	 -0.01794666229096644056, 	 7.33041957680901035133
5.88830000000000008953, 	 1.55191923185793467788, 	 0.06652848013772105773, 	 7.32126878834377770033
5.88940000000000019043, 	 1.73487796452126663560, 	 0.15226837529830072882, 	 7.31244098063181091618
5.89050000000000029132, 	 1.91995544109329308036, 	 0.23927290640677045808, 	 7.30393706595921621272
5.89160000000000039222, 	 2.10711987080386631277, 	 0.32754209508257409178, 	 7.29575799499619126465
5.89270000000000049312, 	 2.29633830548466288946, 	 0.41707619361701875338, 	 7.28790466779172696477
5.89380000000000059401, 	 2.48757670325949886703, 	 0.50787547832705481898, 	 7.28037796450881025123
5.89490000000000069491, 	 2.68079992297147517988, 	 0.59994022928359180824, 	 7.27317884570121897525
5.89599999999999990763, 	 2.87597170427575177243, 	 0.69327098634469452865, 	 7.26630829774924968945
5.89710000000000000853, 	 3.07305466447793795837, 	 0.78786833587170057580, 	 7.25976731925977158966
5.89820000000000010942, 	 3.27201031748386972353, 	 0.88373271926857255298, 	 7.25355692427034792757
5.89930000000000021032, 	 3.47279910192360397048, 	 0.98086483814646086010, 	 7.24767814685316569268
5.90040000000000031122, 	 3.67538040567332835451, 	 1.07926548334920391348, 	 7.24213204503119101219
5.90150000000000041211, 	 3.87971259378075261637, 	 1.17893511618896473792, 	 7.23691970377911442114
5.90260000000000051301, 	 4.08575304537366257307, 	 1.27987451910595573246, 	 7.23204223720624295169
5.90370000000000061391, 	 4.29345819088217783843, 	 1.38208455013883857454, 	 7.22750079008352308563
5.90480000000000071481, 	 4.50278354629857258118, 	 1.48556549129659587472, 	 7.22329653887735290141
5.90589999999999992752, 	 4.71368375073831646915, 	 1.59031822966313951540, 	 7.21943069243150414849
5.90700000000000002842, 	 4.92611260854113996999, 	 1.69634343154022593225, 	 7.21590449241041209660
5.90810000000000012932, 	 5.14002312972814223713, 	 1.80364102461267838962, 	 7.21271921358892242893
5.90920000000000023022, 	 5.35536756594896967698, 	 1.91221216278866035232, 	 7.20987616404828557393
5.91030000000000033111, 	 5.57209744929584438466, 	 2.02205669291341116889, 	 7.20737668531725184096
