x [cm], 	 0.69214285714285717077, 	 48.45000000000000284217, 	 96.20785714285715073402
0.00000000000000000000, 	 0.00000000000000000000, 	 0.00000000000000000000, 	 0.00000000000000000000
5.70020000000000059970, 	 0.95303040718206655235, 	 1.15432239101804579029, 	 0.99249468508352800544
5.70130000000000070060, 	 0.87446370744196066926, 	 1.10241274631557129027, 	 0.99305927914584801730
5.70239999999999991331, 	 0.79361531224459036515, 	 1.04881650731126985221, 	 0.99293267523992723156
5.70350000000000001421, 	 0.71090084266546704761, 	 0.99345383340195092536, 	 0.99209533198947585930
5.70460000000000011511, 	 0.62674767395312080964, 	 0.93646501222891886940, 	 0.99047120297684931867
5.70570000000000021600, 	 0.54157768022446262091, 	 0.87803038161192314970, 	 0.98804470855910320193
5.70680000000000031690, 	 0.45580275874130032898, 	 0.81834459633232625730, 	 0.98500564605181906153
5.70790000000000041780, 	 0.36982579659938408234, 	 0.75760574687899628898, 	 0.98116857627380682505
5.70900000000000051870, 	 0.28402182678382476011, 	 0.69601478967906349471, 	 0.97654051894986004800
5.71010000000000061959, 	 0.19874562483600921592, 	 0.63377811478779111365, 	 0.97112119628339366173
5.71119999999999983231, 	 0.11432720529952894450, 	 0.57110946819178320943, 	 0.96490725403651889103
5.71229999999999993321, 	 0.03106536251766440354, 	 0.50823012968498992858, 	 0.95788921396703141653
5.71340000000000003411, 	 -0.05077182317730722511, 	 0.44536122711681974673, 	 0.95008077191708750764
5.71450000000000013500, 	 -0.13094519515443758806, 	 0.38273054816734053407, 	 0.94149471980209653577
5.71560000000000023590, 	 -0.20924490415721003211, 	 0.32059172454813805730, 	 0.93215154154370116757
5.71670000000000033680, 	 -0.28549064840250726327, 	 0.25918871684943128875, 	 0.92206687423059596753
5.71780000000000043769, 	 -0.35952989858331990680, 	 0.19876771909827453677, 	 0.91126167266850743864
5.71890000000000053859, 	 -0.43123599818147895224, 	 0.13957462335416140342, 	 0.89976481211308512176
5.72000000000000063949, 	 -0.50050636849252849725, 	 0.08185214455168512981, 	 0.88761678756296091830
5.72109999999999985221, 	 -0.56725917904284750559, 	 0.02583659890085449745, 	 0.87485836859073218275
5.72219999999999995310, 	 -0.63143146347793310813, 	 -0.02824574160698779465, 	 0.86153352713844000288
5.72330000000000005400, 	 -0.69297640163075013842, 	 -0.08018242325932907477, 	 0.84768912285960673625
5.72440000000000015490, 	 -0.75185633215891156667, 	 -0.12977822630164204121, 	 0.83337663845585252531
5.72550000000000025580, 	 -0.80802799477108244730, 	 -0.17685797185899984618, 	 0.81865410711884167849
5.72660000000000035669, 	 -0.86140114239341902813, 	 -0.22126871951050852694, 	 0.80358123995830832431
5.72770000000000045759, 	 -0.91173752388482254272, 	 -0.26288140763277895173, 	 0.78821718458764278292
5.72880000000000055849, 	 -0.95845328624651160432, 	 -0.30159199968029765104, 	 0.77262031925655072495
5.72990000000000065938, 	 -1.00032837770492255558, 	 -0.33732223809130057468, 	 0.75684877017334217797
5.73099999999999987210, 	 -1.03511595670768707933, 	 -0.37002006612284493725, 	 0.74096146925690520302
5.73209999999999997300, 	 -1.05955351660119889701, 	 -0.39965965953996557269, 	 0.72501616041914163091
5.73320000000000007390, 	 -1.07000987109680312237, 	 -0.42624090847772366786, 	 0.70906791555372306046
5.73430000000000017479, 	 -1.06267912709436873619, 	 -0.44978800459964923819, 	 0.69316839754483916547
5.73540000000000027569, 	 -1.03465759173931637349, 	 -0.47034620239122859608, 	 0.67736705740337366244
5.73650000000000037659, 	 -0.97944396862471261311, 	 -0.48797448664703879651, 	 0.66170864080148272812
5.73760000000000047748, 	 -0.89216757934561141674, 	 -0.50272976414584857885, 	 0.64623198997423059176
5.73870000000000057838, 	 -0.76924618273374434363, 	 -0.51463585729585936690, 	 0.63097289029296332874
5.73980000000000067928, 	 -0.60873926209026396617, 	 -0.52363296003109949250, 	 0.61595940253435110812
5.74089999999999989200, 	 -0.41036121179560514083, 	 -0.52948198672231938655, 	 0.60121893554055005904
5.74199999999999999289, 	 -0.17560636445869876043, 	 -0.53160037649283387040, 	 0.58677330788851722598
5.74310000000000009379, 	 0.09253201047362479004, 	 -0.52882620452786910370, 	 0.57263818978020952777
5.74420000000000019469, 	 0.39012499687432888873, 	 -0.51980983037469086216, 	 0.55882476614518861169
5.74530000000000029559, 	 0.71279210782207547137, 	 -0.50254410681075667444, 	 0.54534075092536926643
5.74640000000000039648, 	 1.05605280991076200259, 	 -0.47452979742731332680, 	 0.53219152023023552633
5.74750000000000049738, 	 1.41575876387086241337, 	 -0.43276409012893746198, 	 0.51938217869263469950
5.74860000000000059828, 	 1.78881401458253619374, 	 -0.37385010845086086295, 	 0.50692160358785376406
5.74970000000000069917, 	 2.17282658376154236279, 	 -0.29502516350989471672, 	 0.49483034001869347085
5.75079999999999991189, 	 2.56621181876664650190, 	 -0.19503949514838905821, 	 0.48315999240539952986
5.75190000000000001279, 	 2.96814865546947981301, 	 -0.06857558465331524411, 	 0.47201464703015899582
5.75300000000000011369, 	 3.37839237439849782163, 	 0.08682256521119144366, 	 0.46156405887033952196
5.75410000000000021458, 	 3.79711230403749766538, 	 0.27240014847300808576, 	 0.45206497618975510777
5.75520000000000031548, 	 4.22471275197992124362, 	 0.48833572927183888090, 	 0.44388694743075401972
5.75630000000000041638, 	 4.66165379854304440244, 	 0.73376916065497721497, 	 0.43753248231192048978
5.75740000000000051728, 	 5.10829723215149567039, 	 1.00691750782959288379, 	 0.43359748025846550634
5.75850000000000061817, 	 5.56478862742158408849, 	 1.30527976200561646181, 	 0.43283352069803293638
5.75960000000000071907, 	 6.03098487353945511558, 	 1.62590239627021948543, 	 0.43662241242435606559
5.76069999999999993179, 	 6.50643182274026976586, 	 1.96566534777491774832, 	 0.44633613872268795841
5.76180000000000003268, 	 6.99038950157162641830, 	 2.32154565089339337547, 	 0.46088234108103443010
5.76290000000000013358, 	 7.48190110394486396217, 	 2.69082596766143522515, 	 0.48099997387113030411
5.76400000000000023448, 	 7.97988597022922618862, 	 3.07122794629227380270, 	 0.50880409545237248459
5.76510000000000033538, 	 8.48317562140151792960, 	 3.46096449634952252339, 	 0.54478042637630741396
5.76620000000000043627, 	 8.99063467749806832785, 	 3.85871690207525164240, 	 0.58924691655791217038
5.76730000000000053717, 	 9.50125146485666149943, 	 4.26355222520284105059, 	 0.64224468007728297003
5.76840000000000063807, 	 10.01417327507297727607, 	 4.67480294035770338468, 	 0.70352289919892962988
5.76949999999999985079, 	 10.52873162996167444305, 	 5.09192045192261755204, 	 0.77257419233291524385
5.77059999999999995168, 	 11.04443312923456943508, 	 5.51430882084609574889, 	 0.84879102370001235922
5.77170000000000005258, 	 11.56093358947723181984, 	 5.94118050688046306362, 	 0.93140801636942449626
5.77280000000000015348, 	 12.07800061729916230036, 	 6.37147608954517075119, 	 1.01946894899210760421
5.77390000000000025437, 	 12.59548579905468379536, 	 6.80382620044635277878, 	 1.11201556403156409658
5.77500000000000035527, 	 13.11327134164637264746, 	 7.23649805373334320535, 	 1.20835338793683333414
5.77610000000000045617, 	 13.63122109140753579481, 	 7.66758520223141548655, 	 1.30780887268718726268
5.77720000000000055707, 	 14.14914332610480407482, 	 8.09503815197377107893, 	 1.40986750461248955268
5.77830000000000065796, 	 14.66675137558797636927, 	 8.51653726047971204594, 	 1.51419793401094571195
5.77939999999999987068, 	 15.18362334203697372459, 	 8.92975015980854180953, 	 1.62062928036016762334
5.78049999999999997158, 	 15.69916077780437646538, 	 9.33247775575783045099, 	 1.72910430539261805727
5.78160000000000007248, 	 16.21257058950300233846, 	 9.72279394254452000723, 	 1.83963264275601057207
5.78270000000000017337, 	 16.72284436106352600859, 	 10.09916190324939222478, 	 1.95226308120576241834
5.78380000000000027427, 	 17.22871324448059127121, 	 10.46051136710666540353, 	 2.06705364119746315410
5.78490000000000037517, 	 17.72862471951403406933, 	 10.80627025311042821443, 	 2.18403592188741946245
5.78600000000000047606, 	 18.22074731571570893607, 	 11.13635108110103288936, 	 2.30320061786020424677
5.78710000000000057696, 	 18.70298508782995838828, 	 11.45109715741443601189, 	 2.42448782944983065590
5.78820000000000067786, 	 19.17300137415265126606, 	 11.75119712266528715361, 	 2.54778698882692467009
5.78929999999999989058, 	 19.62825534060396748259, 	 12.03757865777759761272, 	 2.67294372449712458462
5.79039999999999999147, 	 20.06605422326824594847, 	 12.31129308510892883533, 	 2.79977124153010814567
5.79150000000000009237, 	 20.48362378795619065386, 	 12.57340255937067396985, 	 2.92806160094760947743
5.79260000000000019327, 	 20.87819768606819081924, 	 12.82487988650741250751, 	 3.05759785384428761645
5.79370000000000029416, 	 21.24712278857787950415, 	 13.06652778115369528678, 	 3.18817284833733793903
5.79480000000000039506, 	 21.58797362438529887640, 	 13.29892124185756152599, 	 3.31960270415961655743
5.79590000000000049596, 	 21.89866619968917405004, 	 13.52237450173505628470, 	 3.45173504107165785015
5.79700000000000059686, 	 22.17756051865199040662, 	 13.73693180922300172142, 	 3.58444811706143529051
5.79810000000000069775, 	 22.42354693580794844365, 	 13.94237878776936057079, 	 3.71764825961443268199
5.79919999999999991047, 	 22.63611223897056845544, 	 14.13826930177622998031, 	 3.85126517664118894757
5.80030000000000001137, 	 22.81522885445770754131, 	 14.32396240465127235097, 	 3.98524489643330648292
5.80140000000000011227, 	 22.96137967678513547298, 	 14.49866473989974835490, 	 4.11954123201198640913
5.80250000000000021316, 	 23.07583496970940473147, 	 14.66148002471006961400, 	 4.25410682779223403571
5.80360000000000031406, 	 23.16025495592188931937, 	 14.81146909463985572586, 	 4.38888461446268518529
5.80470000000000041496, 	 23.21657467719655798533, 	 14.94760150033520318402, 	 4.52380021466568038591
5.80580000000000051585, 	 23.24691532872551746891, 	 15.06891413491295317328, 	 4.65875589214141783145
5.80690000000000061675, 	 23.25343779094023233256, 	 15.17450090992348599173, 	 4.79362627685708098113
5.80800000000000071765, 	 23.23891720216825262924, 	 15.26355042055367228215, 	 4.92825505056366708345
5.80909999999999993037, 	 23.20693261303422261221, 	 15.33537889375154250615, 	 5.06244369613564781929
5.81020000000000003126, 	 23.15870607190847607626, 	 15.38945782433755837815, 	 5.19597479584148214116
5.81130000000000013216, 	 23.09489389049309338020, 	 15.42543785200263783963, 	 5.32859583965958272245
5.81240000000000023306, 	 23.01696197104442020986, 	 15.44317016654381546914, 	 5.46000284474812147550
5.81350000000000033396, 	 22.92645506640004882115, 	 15.44271030095924679415, 	 5.58987034653386238858
5.81460000000000043485, 	 22.82459740623663080328, 	 15.42395943492244292372, 	 5.71784869216634561440
5.81570000000000053575, 	 22.71238457891720585735, 	 15.38853243485913147026, 	 5.84357470024894976035
5.81680000000000063665, 	 22.59063981600939996497, 	 15.33639089820398915265, 	 5.96668234583905388035
5.81789999999999984936, 	 22.46003564367031657412, 	 15.26849261008807090434, 	 6.08680765130373924165
5.81899999999999995026, 	 22.32114135289639023085, 	 15.18598414994833589731, 	 6.20360086618707828876
5.82010000000000005116, 	 22.17435496658473681464, 	 15.09016695768868920879, 	 6.31673891753489513690
5.82120000000000015206, 	 22.02004112351950837478, 	 14.98244165750087475431, 	 6.42593714294664852815
5.82230000000000025295, 	 21.85859196742980614658, 	 14.86424666344772482773, 	 6.53095597560026774886
5.82340000000000035385, 	 21.69037655218990323647, 	 14.73701720084068433891, 	 6.63159673048352882319
5.82450000000000045475, 	 21.51573969222449278504, 	 14.60216728177645961750, 	 6.72771197318089342332
5.82560000000000055564, 	 21.33501513312078401441, 	 14.46108504534643479644, 	 6.81926169677326043939
5.82670000000000065654, 	 21.14853102197987766431, 	 14.31513073962591242605, 	 6.90634887563870769611
5.82779999999999986926, 	 20.95661349055568933863, 	 14.16563155191745693173, 	 6.98916130729587337100
5.82889999999999997016, 	 20.75959168668689258652, 	 14.01387248205865532213, 	 7.06789155302514604529
5.83000000000000007105, 	 20.55779288260028181412, 	 13.86108521452785602435, 	 7.14272638538174042822
5.83110000000000017195, 	 20.35155252292090821697, 	 13.70842228395846085220, 	 7.21388382244014181310
5.83220000000000027285, 	 20.14119095393727931764, 	 13.55697679493194840461, 	 7.28164432213847501174
5.83330000000000037375, 	 19.92702341909427588007, 	 13.40779157475819616252, 	 7.34631492008743069988
5.83440000000000047464, 	 19.70936877320790614476, 	 13.26182102460843026392, 	 7.40823297207667685882
5.83550000000000057554, 	 19.48855664114432428846, 	 13.11994200100638963136, 	 7.46774012815039434088
5.83660000000000067644, 	 19.26494917665042905242, 	 12.98294810671406374070, 	 7.52512264921050633149
5.83769999999999988916, 	 19.03890988724600319415, 	 12.85153997133953751586, 	 7.58063569722479080326
5.83879999999999999005, 	 18.81083543959920234556, 	 12.72631115103437515756, 	 7.63451546858558405262
5.83990000000000009095, 	 18.58115688202754256508, 	 12.60773433549485922356, 	 7.68697014061736538793
5.84100000000000019185, 	 18.35035799802582801021, 	 12.49615410728396192042, 	 7.73817190872574123262
5.84210000000000029274, 	 18.11895027423955539803, 	 12.39178595206956856600, 	 7.78825980375264670386
5.84320000000000039364, 	 17.88753322567690773326, 	 12.29471918774675209818, 	 7.83734104783896956548
5.84430000000000049454, 	 17.65680679069848579843, 	 12.20492213222565425212, 	 7.88549414307512375188
5.84540000000000059543, 	 17.42750319548725101981, 	 12.12224801133240958961, 	 7.93277279509434940508
5.84650000000000069633, 	 17.20038098330857323504, 	 12.04644148710836937255, 	 7.97921022190364226390
5.84759999999999990905, 	 16.97622029960950484906, 	 11.97714731387143771713, 	 8.02482366566907323602
5.84870000000000000995, 	 16.75580936842729684599, 	 11.91392303492400195353, 	 8.06961884494331904705
5.84980000000000011084, 	 16.53992254791428706540, 	 11.85625653396127709982, 	 8.11359464993022250212
5.85090000000000021174, 	 16.32929955051753623252, 	 11.80358720766504987409, 	 8.15674654409366794994
5.85200000000000031264, 	 16.12462231883148433553, 	 11.75532818515156918693, 	 8.19906557031679383840
5.85310000000000041354, 	 15.92648496794052981329, 	 11.71088732290328415786, 	 8.24054575813010714569
5.85420000000000051443, 	 15.73536687298541458802, 	 11.66968602681440891899, 	 8.28118429764037777829
5.85530000000000061533, 	 15.55161621216861611572, 	 11.63117498283050288421, 	 8.32098137464849152423
5.85640000000000071623, 	 15.37544125052771981643, 	 11.59484844360901512061, 	 8.35994035841888738503
5.85749999999999992895, 	 15.20690514749984778575, 	 11.56025386774670415946, 	 8.39806757865689590403
5.85860000000000002984, 	 15.04592585409768190630, 	 11.52699964069156379765, 	 8.43537111165853836781
5.85970000000000013074, 	 14.89228215873470695385, 	 11.49475593168858900128, 	 8.47186038667509322408
5.86080000000000023164, 	 14.74562519052581599510, 	 11.46325992943124205681, 	 8.50754480069043950152
5.86190000000000033253, 	 14.60549415950468699066, 	 11.43231181691652231791, 	 8.54243282689504113137
5.86300000000000043343, 	 14.47133524094694934092, 	 11.40176448985905999223, 	 8.57653153869290640898
5.86410000000000053433, 	 14.34252267226696275770, 	 11.37151352565864215194, 	 8.60984665723075259791
5.86520000000000063523, 	 14.21838118879889378832, 	 11.34148740657623477546, 	 8.64238306700406866412
5.86629999999999984794, 	 14.09820891341743553937, 	 11.31163663791292428584, 	 8.67414544761084904678
5.86739999999999994884, 	 13.98129976024012322000, 	 11.28192323049237622001, 	 8.70513898082095494146
5.86850000000000004974, 	 13.86696435805173877043, 	 11.25231062142373517077, 	 8.73537016472817917645
5.86960000000000015064, 	 13.75454857288780274871, 	 11.22275496018040996660, 	 8.76484755795337733275
5.87070000000000025153, 	 13.64344895022230907955, 	 11.19319904662861553390, 	 8.79358215642497853537
5.87180000000000035243, 	 13.53312472808686450776, 	 11.16356884115650416334, 	 8.82158733949757944970
5.87290000000000045333, 	 13.42309766457219666336, 	 11.13376593977543826952, 	 8.84887855271818146718
5.87400000000000055422, 	 13.31296246669407246088, 	 11.10367056879965019789, 	 8.87547278437591025124
5.87510000000000065512, 	 13.20241785234073184085, 	 11.07314361474548647379, 	 8.90138777092896305021
5.87619999999999986784, 	 13.09123177171988672285, 	 11.04202958096039388636, 	 8.92664091538532744607
5.87729999999999996874, 	 12.97923579934561821858, 	 11.01016075996756171662, 	 8.95124799814008298426
5.87840000000000006963, 	 12.86632707508658768347, 	 10.97736324982296984842, 	 8.97522180340922126618
5.87950000000000017053, 	 12.75244944994192586307, 	 10.94346264446228644829, 	 8.99857082866565072266
5.88060000000000027143, 	 12.63760436347251037148, 	 10.90828830224091916534, 	 9.02129819752274464406
5.88170000000000037232, 	 12.52183769314887662460, 	 10.87167631040354542904, 	 9.04340078471375896640
5.88280000000000047322, 	 12.40521209742693820033, 	 10.83347635410104459197, 	 9.06486919577014127469
5.88390000000000057412, 	 12.28785133768828075063, 	 10.79355615237977517040, 	 9.08568458450267257831
5.88500000000000067502, 	 12.16986724398736896546, 	 10.75180209532937247729, 	 9.10582267689268398669
5.88609999999999988773, 	 12.05137366065131665493, 	 10.70812350661332423840, 	 9.12525285734212054933
5.88719999999999998863, 	 11.93249717012273691807, 	 10.66245339298014727092, 	 9.14393871418761250425
5.88830000000000008953, 	 11.81337121945649037968, 	 10.61474954115940327881, 	 9.16183954620646368028
5.88940000000000019043, 	 11.69413237329693799893, 	 10.56499439636510295770, 	 9.17891184004894356008
5.89050000000000029132, 	 11.57474965698106394996, 	 10.51319434880690728562, 	 9.19511076637083313301
5.89160000000000039222, 	 11.45523028491406769547, 	 10.45937889436197032467, 	 9.21039171696945757617
5.89270000000000049312, 	 11.33593897750489709608, 	 10.40360021673058099623, 	 9.22471186098989015534
5.89380000000000059401, 	 11.21709196866560631634, 	 10.34593303699209521085, 	 9.23803167014649240230
5.89490000000000069491, 	 11.09885753464178925753, 	 10.28647408673130136947, 	 9.25031634819288584026
5.89599999999999990763, 	 10.98139216871408585519, 	 10.22534086797855934492, 	 9.26153706688972455652
5.89710000000000000853, 	 10.86484034541681786834, 	 10.16266990121501656574, 	 9.27167187559034822186
5.89820000000000010942, 	 10.74935427209586791264, 	 10.09861432851120355281, 	 9.28070619046201450431
5.89930000000000021032, 	 10.63510059092907766853, 	 10.03334005161564057573, 	 9.28863288167565670506
5.90040000000000031122, 	 10.52224669951223035014, 	 9.96702137043777902647, 	 9.29545213591392283092
5.90150000000000041211, 	 10.41095623023198868395, 	 9.89983956640327278365, 	 9.30117128057345254888
5.90260000000000051301, 	 10.30139183258066815085, 	 9.83198629995514572499, 	 9.30580519328713684502
5.90370000000000061391, 	 10.19371470084290187685, 	 9.76366939033190206487, 	 9.30937468371459431182
5.90480000000000071481, 	 10.08808274119925663115, 	 9.69511667103606633589, 	 9.31190796858272840097
5.90589999999999992752, 	 9.98464838796957998568, 	 9.62657886584844746380, 	 9.31344869607184122628
5.90700000000000002842, 	 9.88355611132210043479, 	 9.55832062916528002461, 	 9.31404442642936736263
5.90810000000000012932, 	 9.78493953331509302984, 	 9.49059675336620145458, 	 9.31371894788052934189
5.90920000000000023022, 	 9.68891816022854612811, 	 9.42367330984049544895, 	 9.31251732729504944075
5.91030000000000033111, 	 9.59559380361157643335, 	 9.35781539958353114628, 	 9.31078566995132206330
5.91140000000000043201, 	 9.50504679496263804594, 	 9.29328223015746957003, 	 9.30829638186485830431
