x [cm], 	 0.40000000000000002220, 	 2.00000000000000000000, 	 3.60000000000000008882
0.00000000000000000000, 	 0.00000000000000000000, 	 0.00000000000000000000, 	 0.00000000000000000000
5.70020000000000059970, 	 1.17446508062961685326, 	 6.86662833635913116836, 	 12.34000743926776344495
5.70130000000000070060, 	 3.87231063787380636043, 	 6.68977415031159772241, 	 12.18777306716846098311
5.70239999999999991331, 	 7.98308996263350589828, 	 7.25433647440369089310, 	 11.79037544406201831748
5.70350000000000001421, 	 12.67224736649549043932, 	 9.33282804756382766698, 	 11.38990694808725834264
5.70460000000000011511, 	 17.54889636685741294286, 	 12.13207553887504452916, 	 11.75317956096644422814
5.70570000000000021600, 	 22.33815646893080497648, 	 15.95650388918734385868, 	 12.84515424351979895334
5.70680000000000031690, 	 27.13415950821571342999, 	 20.64087999265287010076, 	 14.58781307532929005788
5.70790000000000041780, 	 31.98037463795366619479, 	 25.37161050061929756794, 	 17.12105169899432866032
5.70900000000000051870, 	 36.81453366751462397133, 	 29.97086860360109739077, 	 20.70792485357693735182
5.71010000000000061959, 	 41.60654150588650423970, 	 34.52337540633195089868, 	 24.82063565928267934169
5.71119999999999983231, 	 46.38151764477981942036, 	 39.06073134993922479907, 	 29.12473004365024920048
5.71229999999999993321, 	 51.15107608947660366994, 	 43.60684191556411803958, 	 33.51063026386877652385
5.71340000000000003411, 	 55.92084629610416612877, 	 48.18377560571709494752, 	 37.94146392170147663592
5.71450000000000013500, 	 60.69135051264844804564, 	 52.80211991468681986817, 	 42.41346150946084492261
5.71560000000000023590, 	 65.45693633258473198566, 	 57.45977305770575327415, 	 46.93962958413897013088
5.71670000000000033680, 	 70.21756218715995601087, 	 62.15442621902279540791, 	 51.53032856364927027926
5.71780000000000043769, 	 74.97373050550302764350, 	 66.88432840105458865310, 	 56.18477737233904889536
5.71890000000000053859, 	 79.72536747931808065459, 	 71.64694595559176093502, 	 60.89311026244184432699
5.72000000000000063949, 	 84.47171468328929222480, 	 76.43637298612871688874, 	 65.64245639078178840009
5.72109999999999985221, 	 89.21132240902375087899, 	 81.24235669247286750760, 	 70.41964470671901210608
5.72219999999999995310, 	 93.94207259688637634554, 	 86.05132657358295489303, 	 75.20458619879559591936
5.72330000000000005400, 	 98.66130269484395398649, 	 90.84697657025998296376, 	 79.96307181956507292853
5.72440000000000015490, 	 103.36591363173508284490, 	 95.60881666464912598258, 	 84.64498944803894175948
5.72550000000000025580, 	 108.05229074301534808455, 	 100.30981916920812579974, 	 89.19344497203937294216
5.72660000000000035669, 	 112.71601527869258063674, 	 104.91435534664654483095, 	 93.55221752503429399894
5.72770000000000045759, 	 117.35157379080115447323, 	 109.38060157782675219096, 	 97.66567890587600686558
5.72880000000000055849, 	 121.95246265334579049977, 	 113.66518138478436128480, 	 101.47658177742523832876
5.72990000000000065938, 	 126.51210144117679590181, 	 117.71788932663770310683, 	 104.98358044540070466155
5.73099999999999987210, 	 131.02499683981272937672, 	 121.50706964251348551898, 	 108.21813321531303131451
5.73209999999999997300, 	 135.48439055399205699359, 	 125.05736876438623994545, 	 111.22342336408793528335
5.73320000000000007390, 	 139.88886152592465350608, 	 128.41735433224940265973, 	 114.07406232065774531748
5.73430000000000017479, 	 144.19512452886471010061, 	 131.68567844040694581054, 	 116.85266862292154144143
5.73540000000000027569, 	 148.39414090939834522942, 	 135.00795420192318374575, 	 119.64265944439371480712
5.73650000000000037659, 	 152.58430306521273678300, 	 138.39387104401481565219, 	 122.53897636288716910258
5.73760000000000047748, 	 156.83184142041301356585, 	 141.87479105670308854314, 	 125.57385424319058131459
5.73870000000000057838, 	 161.12606741825763378984, 	 145.53037075716943604675, 	 128.74774676373175452682
5.73980000000000067928, 	 165.43675301155525403374, 	 149.39368423560344467660, 	 132.09075875610557204709
5.74089999999999989200, 	 169.75284034289461487788, 	 153.43492486370479355173, 	 135.64389258563579687689
5.74199999999999999289, 	 174.07553577202594397022, 	 157.60514080447137530427, 	 139.42263852226020048874
5.74310000000000009379, 	 178.40065454218765239602, 	 161.86923246720033375823, 	 143.40687082924168294085
5.74420000000000019469, 	 182.71759199610829682570, 	 166.20387232755697937137, 	 147.56083160029783130085
5.74530000000000029559, 	 187.01777746542325076007, 	 170.58611372255413130006, 	 151.84940954685427527693
5.74640000000000039648, 	 191.29778117023465711100, 	 174.99265551576885968643, 	 156.24095428509448879595
5.74750000000000049738, 	 195.55601653706074216643, 	 179.40529519275528969047, 	 160.70509330190765240332
5.74860000000000059828, 	 199.78995705847614772210, 	 183.81238474872336041699, 	 165.21394480276552485520
5.74970000000000069917, 	 203.99661071587695460039, 	 188.20584440790119629128, 	 169.74224284708373033936
5.75079999999999991189, 	 208.17392195277824384902, 	 192.57781493739821598865, 	 174.26760343881349513140
5.75190000000000001279, 	 212.32071763541503628403, 	 196.91966933576867404554, 	 178.76997987219982633178
5.75300000000000011369, 	 216.43555272450853976807, 	 201.22252900529582575473, 	 183.23045390443164137650
5.75410000000000021458, 	 220.51611320240203895082, 	 205.47726808839863110734, 	 187.63152979556519994730
5.75520000000000031548, 	 224.55956752223571015747, 	 209.67422215375390237568, 	 191.95768131877406403873
5.75630000000000041638, 	 228.56313245909703368852, 	 213.80355906534646237560, 	 196.19622543153460014764
5.75740000000000051728, 	 232.52432785254978853118, 	 217.85654990597589630852, 	 200.33769036247809935958
5.75850000000000061817, 	 236.44107134422480953617, 	 221.82696092382698793699, 	 204.37530079845993213894
5.75960000000000071907, 	 240.31191473779401235333, 	 225.71161573597817096015, 	 208.30533761380434043531
5.76069999999999993179, 	 244.13625339173739803300, 	 229.51040810134679759358, 	 212.12810772652690616269
5.76180000000000003268, 	 247.91425093529176137963, 	 233.22632668523928600735, 	 215.84690872232980041190
5.76290000000000013358, 	 251.64665786942771319445, 	 236.86509831235417777862, 	 219.47659745137963227535
5.76400000000000023448, 	 255.33444625271266659183, 	 240.43703201973301020189, 	 223.03411931399909917673
5.76510000000000033538, 	 258.97926115259912194233, 	 243.95618023502296978222, 	 226.54289170304795675293
5.76620000000000043627, 	 262.58392722733844948380, 	 247.43952297825475739046, 	 230.02970636281372662779
5.76730000000000053717, 	 266.15215407294874694344, 	 250.90645297827398962909, 	 233.52020536270319439609
5.76840000000000063807, 	 269.68810702684447733191, 	 254.37656477363614726528, 	 237.03803763572901175394
5.76949999999999985079, 	 273.19576095265659887446, 	 257.86730746208178288725, 	 240.60377840562910023436
5.77059999999999995168, 	 276.67814632964950760652, 	 261.39221903027720372847, 	 244.23225467969601254481
5.77170000000000005258, 	 280.13693782223060679826, 	 264.95917269036579000385, 	 247.93707479227626322427
5.77280000000000015348, 	 283.57222690418984711869, 	 268.57103518351351567617, 	 251.72527706411210601800
5.77390000000000025437, 	 286.98279705651725635107, 	 272.22608767365744597555, 	 255.59514997998957142045
5.77500000000000035527, 	 290.36745490556467075294, 	 275.91396464927441911641, 	 259.54154012659694217291
5.77610000000000045617, 	 293.72394743067894751221, 	 279.62322765442399941094, 	 263.55108044336503780869
5.77720000000000055707, 	 297.04725180304137666099, 	 283.34423413160732252436, 	 267.60553046839129365253
5.77830000000000065796, 	 300.33365302454666334597, 	 287.06305104255210380870, 	 271.68593180243919960049
5.77939999999999987068, 	 303.58072615942313632331, 	 290.76427524848821803971, 	 275.77106391112823757794
5.78049999999999997158, 	 306.78596542454664586330, 	 294.43308123616475313611, 	 279.83840991691175759115
5.78160000000000007248, 	 309.94625832796327813412, 	 298.05568806541890580775, 	 283.86642985102383818230
5.78270000000000017337, 	 313.05827799407717293434, 	 301.61940781185182913759, 	 287.83661658822882145614
5.78380000000000027427, 	 316.11906291489538034511, 	 305.11317684988409837388, 	 291.73347294992083789111
5.78490000000000037517, 	 319.12634200752864899187, 	 308.52828402430066034867, 	 295.54381150280005385866
5.78600000000000047606, 	 322.07858313443659881159, 	 311.85868325545777679508, 	 299.25729901560879397948
5.78710000000000057696, 	 324.97486637802279574316, 	 315.10093825814595902557, 	 302.86686585835190044236
5.78820000000000067786, 	 327.81512009479519065280, 	 318.25141937872945163690, 	 306.36839979839663783423
5.78929999999999989058, 	 330.59896770697565671071, 	 321.31166326711297642760, 	 309.75930358747564241639
5.79039999999999999147, 	 333.32529624413496094348, 	 324.28592858565309597907, 	 313.03890597461276001923
5.79150000000000009237, 	 335.99480756430733663365, 	 327.17638576235276559601, 	 316.20980533112060584244
5.79260000000000019327, 	 338.60884215749462100575, 	 329.98532420510554175053, 	 319.27616446715757092534
5.79370000000000029416, 	 341.16793045348282475970, 	 332.71638782021796032495, 	 322.24366916749465872272
5.79480000000000039506, 	 343.67193449104462388277, 	 335.37400812796391846859, 	 325.12051169666381156276
5.79590000000000049596, 	 346.12090467824657480378, 	 337.96295851271952415118, 	 327.91699817310944808924
5.79700000000000059686, 	 348.51550164177916713015, 	 340.48870223555206848687, 	 330.64433782508706372028
5.79810000000000069775, 	 350.85686761681938605761, 	 342.95776941438333551559, 	 333.31375786129012794845
5.79919999999999991047, 	 353.14635453365787043367, 	 345.37755184938163210973, 	 335.93599701531746859473
5.80030000000000001137, 	 355.38535060080135963290, 	 347.75556437535504983316, 	 338.52092654979657027070
5.80140000000000011227, 	 357.57515894963188429756, 	 350.09857454686624578244, 	 341.07696258300052249979
5.80250000000000021316, 	 359.71684460307761810327, 	 352.41176776219600697004, 	 343.61043215240187009840
5.80360000000000031406, 	 361.81149094938382404507, 	 354.69587021730228570959, 	 346.12558968486450794444
5.80470000000000041496, 	 363.85882904386517111561, 	 356.95254542966836197593, 	 348.62322596240420580216
5.80580000000000051585, 	 365.85740583045668472550, 	 359.18191756550521631652, 	 351.10160756338973442325
5.80690000000000061675, 	 367.80635387739914676786, 	 361.38097228765661839134, 	 353.55732525176154013025
5.80800000000000071765, 	 369.70507935983044944805, 	 363.54486330438720642633, 	 355.98468899143551880115
5.80909999999999993037, 	 371.55258080449630142539, 	 365.66785814578878444081, 	 358.37617114310393162668
5.81020000000000003126, 	 373.34730235693820077358, 	 367.74367369913335323872, 	 360.72349565222378942053
5.81130000000000013216, 	 375.08744302990459118519, 	 369.76573401645322292097, 	 363.01844982109417969696
5.81240000000000023306, 	 376.77131190567496332733, 	 371.72765160845051468641, 	 365.25321788683038448653
5.81350000000000033396, 	 378.39750675935749768541, 	 373.62379439659241597838, 	 367.42040754722785322883
5.81460000000000043485, 	 379.96493985743990151605, 	 375.44965708111789126633, 	 369.51305603186580128749
5.81570000000000053575, 	 381.47280401194950627541, 	 377.20189992154882929754, 	 371.52497917729368737128
5.81680000000000063665, 	 382.92051820974609199766, 	 378.87817874377833504695, 	 373.45118758035113160076
5.81789999999999984936, 	 384.30766266027018218665, 	 380.47695109712213934472, 	 375.28834525561802593074
5.81899999999999995026, 	 385.63392488631347987393, 	 381.99739324337707557788, 	 377.03502411862899634798
5.82010000000000005116, 	 386.89910588444973882361, 	 383.43922198151443581082, 	 378.69175061848665109210
5.82120000000000015206, 	 388.10344629628542634237, 	 384.80170355253812886076, 	 380.26170555202043033205
5.82230000000000025295, 	 389.24643498545447073411, 	 386.08872545917404295324, 	 381.74914691910549890963
5.82340000000000035385, 	 390.32800207450736706960, 	 387.30473733604577546430, 	 383.15975813343584377435
5.82450000000000045475, 	 391.34945999603860400384, 	 388.45398919935081494259, 	 384.49896172953458517441
5.82560000000000055564, 	 392.31249313484096319371, 	 389.54112109234313265915, 	 385.77046831457880671223
5.82670000000000065654, 	 393.21828655321621681651, 	 390.57044170913997049865, 	 386.97694316133492975496
5.82779999999999986926, 	 394.06735895248067436114, 	 391.54478297677252385256, 	 388.11989469399867402899
5.82889999999999997016, 	 394.85974129029602863739, 	 392.46478872856368980138, 	 389.20048448244648398031
5.83000000000000007105, 	 395.59506606786277416177, 	 393.32924561291548570807, 	 390.21771927107761257503
5.83110000000000017195, 	 396.27265598626740938926, 	 394.13539292679990921897, 	 391.16772194631704451240
5.83220000000000027285, 	 396.89165955497333015956, 	 394.87891866892863390603, 	 392.04130281715993078251
5.83330000000000037375, 	 397.45110926678847818039, 	 395.55319330219072071486, 	 392.82114065164955718501
5.83440000000000047464, 	 397.94979196228439377592, 	 396.14762391241197292402, 	 393.48636401569115150778
5.83550000000000057554, 	 398.38554642369479097397, 	 396.64790340769809517951, 	 394.01121435953251648243
5.83660000000000067644, 	 398.75489817110184276316, 	 397.03625221246494447769, 	 394.36550268430784171869
5.83769999999999988916, 	 399.05298584528929950466, 	 397.29091751853991354437, 	 394.52923275851134121694
5.83879999999999999005, 	 399.28383980666467323317, 	 397.38578165426315536024, 	 394.49429296868044048097
5.83990000000000009095, 	 399.44867876334279799266, 	 397.34072279466266763848, 	 394.22691215638161565948
5.84100000000000019185, 	 399.54928684519347825699, 	 397.12021033822395565949, 	 393.75645480555698441094
5.84210000000000029274, 	 399.56897037278804418747, 	 396.73975959452218376100, 	 393.11232988391486742330
5.84320000000000039364, 	 399.50898323443095705443, 	 396.23833432981126634331, 	 392.30525269550935263396
5.84430000000000049454, 	 399.37745143845450002118, 	 395.62615655994915186966, 	 391.36670058826518925343
5.84540000000000059543, 	 399.18451368034857296152, 	 394.91050018296215284863, 	 390.33494606895879996955
5.84650000000000069633, 	 398.92739689525956237048, 	 394.11768225752933858530, 	 389.25720294677410038275
5.84759999999999990905, 	 398.60425363546613652943, 	 393.28625694009582502986, 	 388.18263650134764475297
5.84870000000000000995, 	 398.22670113506035249884, 	 392.45787019501301529090, 	 387.13814851958989038394
5.84980000000000011084, 	 397.80528909594858077980, 	 391.66481452488329750850, 	 386.13932485883344725153
5.85090000000000021174, 	 397.34535313639901232818, 	 390.92386164916678126247, 	 385.19884446611479233979
5.85200000000000031264, 	 396.84753241141294211047, 	 390.23539707513117491544, 	 384.32789981005350909982
5.85310000000000041354, 	 396.30915716305167961764, 	 389.59446586914424415227, 	 383.53007694384655223985
5.85420000000000051443, 	 395.72960829546673267032, 	 388.99288688808309188971, 	 382.79139074933073061402
5.85530000000000061533, 	 395.10717159707792234258, 	 388.39361077586460169186, 	 382.10639919237195272217
5.85640000000000071623, 	 394.43265882764166008201, 	 387.77058074073005400351, 	 381.47965996885073991507
5.85749999999999992895, 	 393.69870784391321194562, 	 387.12370250019904460714, 	 380.89665867687835998368
5.85860000000000002984, 	 392.90725332859830132293, 	 386.45237597098383730554, 	 380.32959294664965455013
5.85970000000000013074, 	 392.06351319693226287200, 	 385.74949798994595084878, 	 379.75999216928983059915
5.86080000000000023164, 	 391.16853764788555736232, 	 385.01044038441347083790, 	 379.17292610505853645009
5.86190000000000033253, 	 390.22106091747861000840, 	 384.23082837393434374462, 	 378.55482098245033739659
5.86300000000000043343, 	 389.21926182602453536674, 	 383.40452228658466538036, 	 377.89097627631542763993
5.86410000000000053433, 	 388.16146013970308104035, 	 382.52948695718566796131, 	 377.16322884299466977609
5.86520000000000063523, 	 387.04977363691210712204, 	 381.60390193300071359772, 	 376.34102561978210133020
5.86629999999999984794, 	 385.88445606787752240052, 	 380.60154591095988507732, 	 375.40291159266479326106
5.86739999999999994884, 	 384.65789901354810353951, 	 379.49734492426182441704, 	 374.33879015904591369690
5.86850000000000004974, 	 383.36328387150564367403, 	 378.27250985848598929806, 	 373.14509976122729995041
5.86960000000000015064, 	 381.99813609946301085074, 	 376.91785591754427287015, 	 371.80999791797268017035
5.87070000000000025153, 	 380.56403219474924526367, 	 375.43391728402320950408, 	 370.30353972396136441603
5.87180000000000035243, 	 379.06498405886611635651, 	 373.81919308136212976024, 	 368.60915207817930649981
5.87290000000000045333, 	 377.50170735548130096504, 	 372.06925656559525350531, 	 366.72832387892447059130
5.87400000000000055422, 	 375.87098920109832533853, 	 370.18210921781502520389, 	 364.67972597927752076430
5.87510000000000065512, 	 374.16999037352235291110, 	 368.15765195978480051053, 	 362.49283661054568028703
5.87619999999999986784, 	 372.39711164950301736098, 	 366.01638910825823813866, 	 360.19140409135752634029
5.87729999999999996874, 	 370.55737614954773562204, 	 363.79399596500888947048, 	 357.79798999263414316374
5.87840000000000006963, 	 368.66071544995696740443, 	 361.51933816630594265007, 	 355.33781268917334728030
5.87950000000000017053, 	 366.71395708245529476699, 	 359.21389238250924336171, 	 352.84909163452090297142
5.88060000000000027143, 	 364.71920184911243723036, 	 356.89932622314296395416, 	 350.36804039828729173678
5.88170000000000037232, 	 362.67852138536164829929, 	 354.59655750416146702264, 	 347.92354308841618149017
5.88280000000000047322, 	 360.59549207938499648662, 	 352.32107153428762558178, 	 345.53652125267240080575
5.88390000000000057412, 	 358.47336575285777371391, 	 350.08020346349741203085, 	 343.22376930282871398958
5.88500000000000067502, 	 356.31327511362587756594, 	 347.87195533267509972575, 	 340.99476822783094576153
5.88609999999999988773, 	 354.11364596246005476132, 	 345.69688353026981531002, 	 338.85004392913106130436
5.88719999999999998863, 	 351.87411134287015102018, 	 343.55802947220473697598, 	 336.78249412185402889008
5.88830000000000008953, 	 349.59600768375128154730, 	 341.45066733350364529542, 	 334.78087648145253751863
5.88940000000000019043, 	 347.27936082952140850466, 	 339.36100978451378296086, 	 332.83592831751315088695
5.89050000000000029132, 	 344.92144634217163456924, 	 337.27558182754688687055, 	 330.93486787466326859430
5.89160000000000039222, 	 342.51990075127764612262, 	 335.18172780882508732248, 	 329.05922056328421376747
5.89270000000000049312, 	 340.07356001961176161785, 	 333.06655296513179109752, 	 327.18843846909402373058
5.89380000000000059401, 	 337.58136288600098851020, 	 330.91711753628709402619, 	 325.30146653143941648523
5.89490000000000069491, 	 335.04194507193517438282, 	 328.71839598000718751791, 	 323.38438049014331454600
5.89599999999999990763, 	 332.45296316036620964951, 	 326.45216278898476502945, 	 321.41860396924801079876
5.89710000000000000853, 	 329.81319017559241046911, 	 324.11288094216774879897, 	 319.38064479196839329234
5.89820000000000010942, 	 327.12120314212825178402, 	 321.69473550884788437543, 	 317.24902772781081239373
5.89930000000000021032, 	 324.37774099128614579968, 	 319.19092780591745395213, 	 315.00412320125786891367
5.90040000000000031122, 	 321.58190750265396218310, 	 316.59439058137030542639, 	 312.63077078768657202090
5.90150000000000041211, 	 318.73157752140144793884, 	 313.89751559416640702693, 	 310.12365661860405907646
5.90260000000000051301, 	 315.82443576947338215177, 	 311.09413160517721053111, 	 307.48702479292711586822
