x [cm], 	 0.25592592592592589007, 	 34.54999999999999715783, 	 68.84407407407405798949
0.00000000000000000000, 	 0.00000000000000000000, 	 0.00000000000000000000, 	 0.00000000000000000000
5.70020000000000059970, 	 -7.66504299804449740208, 	 -3.75110440887103369079, 	 -0.10593132680540019719
5.70130000000000070060, 	 -7.45932061512993982433, 	 -3.62222223062198178667, 	 -0.10261188973947255043
5.70239999999999991331, 	 -7.25772855781337966619, 	 -3.49382167585238034846, 	 -0.09922691475262319927
5.70350000000000001421, 	 -7.06035725017031356998, 	 -3.36596487011856737581, 	 -0.09577417504270779869
5.70460000000000011511, 	 -6.86602717232877246545, 	 -3.23872214516508449833, 	 -0.09225252521593989286
5.70570000000000021600, 	 -6.67002377488923503535, 	 -3.11217201106874385985, 	 -0.08866189421024577022
5.70680000000000031690, 	 -6.46286004493881183208, 	 -2.98640124033210874188, 	 -0.08500322457870963799
5.70790000000000041780, 	 -6.23212021056027154486, 	 -2.86150474037653568260, 	 -0.08127846589272047506
5.70900000000000051870, 	 -5.96670405384843949292, 	 -2.73758540861803911781, 	 -0.07749058465921677963
5.71010000000000061959, 	 -5.65205446747638440286, 	 -2.61475392931423700205, 	 -0.07364356706557315113
5.71119999999999983231, 	 -5.28982676274749596956, 	 -2.49312848044706925066, 	 -0.06974240750062531136
5.71229999999999993321, 	 -4.89152051297573731148, 	 -2.37283433395610821037, 	 -0.06579306207897017700
5.71340000000000003411, 	 -4.46802084629112261638, 	 -2.25400319106779489786, 	 -0.06180202036247436220
5.71450000000000013500, 	 -4.02940439063389987950, 	 -2.13677182972380785841, 	 -0.05777684188990644953
5.71560000000000023590, 	 -3.58307519950710151591, 	 -2.02127919342418893578, 	 -0.05372634874566398211
5.71670000000000033680, 	 -3.13332456722889096667, 	 -1.90766048596511561541, 	 -0.04966039010648785890
5.71780000000000043769, 	 -2.68234588130114603999, 	 -1.79603641599225105630, 	 -0.04558941540769969464
5.71890000000000053859, 	 -2.23101029071251755198, 	 -1.68649576255485045273, 	 -0.04152431237992307983
5.72000000000000063949, 	 -1.77972755844207863873, 	 -1.57907020081268179013, 	 -0.03747640579308927911
5.72109999999999985221, 	 -1.32847747280146433191, 	 -1.47370192326575200070, 	 -0.03345746478136239765
5.72219999999999995310, 	 -0.87695932789802677476, 	 -1.37020675184631834931, 	 -0.02947973349162299680
5.72330000000000005400, 	 -0.42464842554795162455, 	 -1.26823750573774307604, 	 -0.02555636136531323765
5.72440000000000015490, 	 0.02911649050697727448, 	 -1.16725353235737827617, 	 -0.02170052991762672773
5.72550000000000025580, 	 0.48501845624147205127, 	 -1.06650194744978366046, 	 -0.01792481477463813908
5.72660000000000035669, 	 0.94365366184589571930, 	 -0.96500578795445424163, 	 -0.01424145345308048226
5.72770000000000045759, 	 1.40542620793124228840, 	 -0.86155018065380195580, 	 -0.01066253276193899341
5.72880000000000055849, 	 1.87048261842365870500, 	 -0.75476683484465134644, 	 -0.00720037300323669600
5.72990000000000065938, 	 2.33869069306075560988, 	 -0.64319276036888484160, 	 -0.00386715669663905163
5.73099999999999987210, 	 2.80966052710508673584, 	 -0.52531728962500590097, 	 -0.00066011535092447868
5.73209999999999997300, 	 3.28280041369198061219, 	 -0.39962966064952898382, 	 0.00181743846190975220
5.73320000000000007390, 	 3.75739309340530036607, 	 -0.26494671293672528156, 	 0.00429227102678295634
5.73430000000000017479, 	 4.23267176192221850073, 	 -0.12056007353366994528, 	 0.00721474812074025720
5.73540000000000027569, 	 4.70788295460285244332, 	 0.03480495390997776634, 	 0.01007564769767406269
5.73650000000000037659, 	 5.18233936271318995637, 	 0.20186594394910012396, 	 0.01264365086041875468
5.73760000000000047748, 	 5.65545779631964595779, 	 0.38110797500314508301, 	 0.01491851175775069961
5.73870000000000057838, 	 6.12677761232207807041, 	 0.57277607448043843519, 	 0.01700128603663444982
5.73980000000000067928, 	 6.59595939619251847574, 	 0.77689043070124230717, 	 0.01892540773893585521
5.74089999999999989200, 	 7.06275881465809263204, 	 0.99327077218798265346, 	 0.02071456692263071511
5.74199999999999999289, 	 7.52700235265383366112, 	 1.22156734923958443240, 	 0.02242787990984156793
5.74310000000000009379, 	 7.98856173941885927547, 	 1.46129555138409950032, 	 0.02412646723013388977
5.74420000000000019469, 	 8.44733401024744878782, 	 1.71187116212844236962, 	 0.02587766771023326112
5.74530000000000029559, 	 8.90322637321541421329, 	 1.97264353713247597710, 	 0.02776118902940292663
5.74640000000000039648, 	 9.35614504170812821826, 	 2.24292483333139847090, 	 0.02987140803967968869
5.74750000000000049738, 	 9.80598785851802645652, 	 2.52201419525733205873, 	 0.03230920084040959234
5.74860000000000059828, 	 10.25264057411584595059, 	 2.80921645743908898751, 	 0.03517645284646318815
5.74970000000000069917, 	 10.69597663955330979491, 	 3.10385546653371324766, 	 0.03858142898926469888
5.75079999999999991189, 	 11.13586016704041625758, 	 3.40528254841796007568, 	 0.04263477755529363616
5.75190000000000001279, 	 11.57215140066444902800, 	 3.71288092708418338006, 	 0.04744389425339388955
5.75300000000000011369, 	 12.00471396944467450396, 	 4.02606704160180761676, 	 0.05310773847739531234
5.75410000000000021458, 	 12.43342214477023155439, 	 4.34428971866924307221, 	 0.05971234106045272827
5.75520000000000031548, 	 12.85816836947323871243, 	 4.66702806776910783526, 	 0.06732701105951593989
5.75630000000000041638, 	 13.27887036636147577440, 	 4.99378880640802869095, 	 0.07600128318356003110
5.75740000000000051728, 	 13.69547280479031492462, 	 5.32410352730207936389, 	 0.08576269518603760189
5.75850000000000061817, 	 14.10794760902950883974, 	 5.65752621605440531027, 	 0.09661548630902998258
5.75960000000000071907, 	 14.51629393116827060339, 	 5.99363113940699943072, 	 0.10854026888537204876
5.76069999999999993179, 	 14.92053671551543558849, 	 6.33201106999189100577, 	 0.12149466587046209298
5.76180000000000003268, 	 15.32072390612622037054, 	 6.67227571322064161308, 	 0.13541484496998462683
5.76290000000000013358, 	 15.71692275260383375723, 	 7.01405017036617284276, 	 0.15021782619966600469
5.76400000000000023448, 	 16.10921575368737990175, 	 7.35697330384335490550, 	 0.16580439981896946677
5.76510000000000033538, 	 16.49769671818694050103, 	 7.70069592803167690676, 	 0.18206246775457288201
5.76620000000000043627, 	 16.88246729450813532480, 	 8.04487879955599893833, 	 0.19887061380461976134
5.76730000000000053717, 	 17.26363418296040563860, 	 8.38919039869072591387, 	 0.21610171459440188912
5.76840000000000063807, 	 17.64130700747558577746, 	 8.73330454362964125892, 	 0.23362642197509783659
5.76949999999999985079, 	 18.01559666252210689663, 	 9.07689691156937961125, 	 0.25131637524521888150
5.77059999999999995168, 	 18.38661583237519536738, 	 9.41963803607235483639, 	 0.26904703848355804308
5.77170000000000005258, 	 18.75448183992811834742, 	 9.76119407839835950824, 	 0.28670135259257595317
5.77280000000000015348, 	 19.11931725159284312099, 	 10.10122981233146788327, 	 0.30417017634057103015
5.77390000000000025437, 	 19.48124721599936037819, 	 10.43939956556399906162, 	 0.32135050573022688747
5.77500000000000035527, 	 19.84039723758267115272, 	 10.77534442072269449397, 	 0.33815621927331607210
5.77610000000000045617, 	 20.19689354281504023447, 	 11.10869045142153233030, 	 0.35448223514667437373
5.77720000000000055707, 	 20.55086500742654109786, 	 11.43904781158114047912, 	 0.37023929820320633510
5.77830000000000065796, 	 20.90244467223073954187, 	 11.76601061055757568852, 	 0.38538153074197456505
5.77939999999999987068, 	 21.25176989809451555402, 	 12.08915760922109505771, 	 0.39987788436743315623
5.78049999999999997158, 	 21.59898165255578561528, 	 12.40805374143100259232, 	 0.41370083035172894315
5.78160000000000007248, 	 21.94421244040326968161, 	 12.72225243191402732634, 	 0.42682593317308609171
5.78270000000000017337, 	 22.28758313653899847395, 	 13.03129864753569222557, 	 0.43923392408356443095
5.78380000000000027427, 	 22.62922551095560663725, 	 13.33473259213991113370, 	 0.45091199269444276476
5.78490000000000037517, 	 22.96928154954937895127, 	 13.63209393432019211900, 	 0.46185391537673564644
5.78600000000000047606, 	 23.30789310219242693734, 	 13.92292644271788404353, 	 0.47205948380592677172
5.78710000000000057696, 	 23.64519355396095079413, 	 14.20678289514291492424, 	 0.48153368880961472387
5.78820000000000067786, 	 23.98130168690710917190, 	 14.48323012587863800604, 	 0.49028591458234049849
5.78929999999999989058, 	 24.31631749153640598138, 	 14.75185407896173295228, 	 0.49832923769040582407
5.79039999999999999147, 	 24.65031931801247822023, 	 15.01226474233744312414, 	 0.50567984131500165468
5.79150000000000009237, 	 24.98336147232982185074, 	 15.26410084703395675376, 	 0.51235652535713649414
5.79260000000000019327, 	 25.31547172537156242811, 	 15.50703422628835959074, 	 0.51838028982739114969
5.79370000000000029416, 	 25.64664863258352767161, 	 15.74077374219722713633, 	 0.52377397461108388121
5.79480000000000039506, 	 25.97685871021517556301, 	 15.96506870228387420241, 	 0.52856475378142830923
5.79590000000000049596, 	 26.30603388275272891406, 	 16.17971170496072375045, 	 0.53278469216534607433
5.79700000000000059686, 	 26.63406962494906693451, 	 16.38454087004519266202, 	 0.53644738108412437505
5.79810000000000069775, 	 26.96081828025230464618, 	 16.57944142687015798288, 	 0.53957132398489093816
5.79919999999999991047, 	 27.28608527270232642081, 	 16.76434664711108624147, 	 0.54218668599783459427
5.80030000000000001137, 	 27.60963003082535394128, 	 16.93923812191007982619, 	 0.54432778857649533055
5.80140000000000011227, 	 27.93116976032447595912, 	 17.10414539349398665991, 	 0.54602784931023162773
5.80250000000000021316, 	 28.25037666645503620089, 	 17.25914496086161520338, 	 0.54731762426314056746
5.80360000000000031406, 	 28.56687596951145735602, 	 17.40435868786757822591, 	 0.54822693625445095833
5.80470000000000041496, 	 28.88024655956613528929, 	 17.53995165048303306321, 	 0.54878745059093336778
5.80580000000000051585, 	 29.19002173697786162165, 	 17.66612946803653727557, 	 0.54903149635183645660
5.80690000000000061675, 	 29.49569029048752000222, 	 17.78313517040242430767, 	 0.54898397702152978983
5.80800000000000071765, 	 29.79669856047108567054, 	 17.89124565900216978775, 	 0.54866800956553851698
5.80909999999999993037, 	 30.09245168367577605295, 	 17.99076782393883178202, 	 0.54811022841061263211
5.81020000000000003126, 	 30.38231632300661644308, 	 18.08203438261191919878, 	 0.54733953731126416820
5.81130000000000013216, 	 30.66562603858307056726, 	 18.16539950681698911694, 	 0.54638632571501677404
5.81240000000000023306, 	 30.94168718879938495547, 	 18.24123430564484849015, 	 0.54527966845730391210
5.81350000000000033396, 	 31.20978382197033340617, 	 18.30992223044582090097, 	 0.54404507205054342123
5.81460000000000043485, 	 31.46918314021331397612, 	 18.37185446567124458284, 	 0.54270440001769604255
5.81570000000000053575, 	 31.71914062750234819532, 	 18.42742536552985654907, 	 0.54127902364168123395
5.81680000000000063665, 	 31.95890580398257085903, 	 18.47702799071678114728, 	 0.53979167286721085883
5.81789999999999984936, 	 32.18773014839879209603, 	 18.52104978722633887855, 	 0.53826502572673673441
5.81899999999999995026, 	 32.40487519630153911976, 	 18.55986842359492428045, 	 0.53672076527528866929
5.82010000000000005116, 	 32.60961937043813918535, 	 18.59384779985520452783, 	 0.53517939649542800584
5.82120000000000015206, 	 32.80126445876380358868, 	 18.62333431675493500279, 	 0.53365884252102313567
5.82230000000000025295, 	 32.97914217965170280422, 	 18.64865356417910291498, 	 0.53217527659421248742
5.82340000000000035385, 	 33.14262066772349157873, 	 18.67010751379981670084, 	 0.53074401156567330151
5.82450000000000045475, 	 33.29110997312704967044, 	 18.68797213112334887342, 	 0.52937911226257117203
5.82560000000000055564, 	 33.42406631334969802083, 	 18.70249522952472531756, 	 0.52809374770775352470
5.82670000000000065654, 	 33.54099759118584245243, 	 18.71389444527740764102, 	 0.52689892642457492045
5.82779999999999986926, 	 33.64147216176207422222, 	 18.72235532718833539434, 	 0.52580365582666310775
5.82889999999999997016, 	 33.72512586944464629823, 	 18.72802967200717105811, 	 0.52481559357413254396
5.83000000000000007105, 	 33.79166369449010431936, 	 18.73103424018326990108, 	 0.52394107954948265782
5.83110000000000017195, 	 33.84085758626593332110, 	 18.73144971648763501548, 	 0.52318500140771617701
5.83220000000000027285, 	 33.87254412584346852100, 	 18.72932009313318246768, 	 0.52255061051942131023
5.83330000000000037375, 	 33.88662416305886182499, 	 18.72465330658738125180, 	 0.52203956250788607907
5.83440000000000047464, 	 33.88306387102441874504, 	 18.71741890613442649283, 	 0.52165190810367767504
5.83550000000000057554, 	 33.86189587098582620683, 	 18.70757820768608681306, 	 0.52138586093538619171
5.83660000000000067644, 	 33.82321961672095511631, 	 18.69502371144048424867, 	 0.52123776438335212013
5.83769999999999988916, 	 33.76720047108109667988, 	 18.67962040730309425385, 	 0.52120213488530153789
5.83879999999999999005, 	 33.69399165355073932915, 	 18.66121381863048256378, 	 0.52127163826523337242
5.83990000000000009095, 	 33.60366201802602148518, 	 18.63962251270908865308, 	 0.52143711410690785080
5.84100000000000019185, 	 33.49661353923291073897, 	 18.61464041758531706705, 	 0.52168790555591704194
5.84210000000000029274, 	 33.37364903522777126454, 	 18.58603912268952385034, 	 0.52201257374049214732
5.84320000000000039364, 	 33.23543300764801955438, 	 18.55357051049055883141, 	 0.52239450266843490134
5.84430000000000049454, 	 33.08240647573397552605, 	 18.51696969436125073116, 	 0.52281577911669285808
5.84540000000000059543, 	 32.91509425665890375967, 	 18.47595818642243514773, 	 0.52325970191805026843
5.84650000000000069633, 	 32.73432546778995089198, 	 18.43024722707228590934, 	 0.52370788269149393113
5.84759999999999990905, 	 32.54050731852156985724, 	 18.37954119462991542377, 	 0.52413924831188885012
5.84870000000000000995, 	 32.33407087311972816224, 	 18.32354099931772495324, 	 0.52453065000575849197
5.84980000000000011084, 	 32.11553760855563410814, 	 18.26194741718230218908, 	 0.52485823662749742091
5.85090000000000021174, 	 31.88549282157210029709, 	 18.19446435984996668367, 	 0.52509750755280937273
5.85200000000000031264, 	 31.64456099320913295969, 	 18.12080207929553310464, 	 0.52522204132418648381
5.85310000000000041354, 	 31.39338936460177720278, 	 18.04068030841985148527, 	 0.52520413365832929742
5.85420000000000051443, 	 31.13263662279956278667, 	 17.95383133107641526749, 	 0.52501521681941565323
5.85530000000000061533, 	 30.86296309376009361358, 	 17.86000296297341094487, 	 0.52462692755321127525
5.85640000000000071623, 	 30.58502198118652160019, 	 17.75896141062975175373, 	 0.52400959963090831817
5.85749999999999992895, 	 30.29946241914752036450, 	 17.65049395926668296397, 	 0.52313442397764897684
5.85860000000000002984, 	 30.00693220649208114992, 	 17.53441142613374026382, 	 0.52197552209280018154
5.85970000000000013074, 	 29.70806042415750525265, 	 17.41055030993648955473, 	 0.52050673797070656779
5.86080000000000023164, 	 29.40345435936810503108, 	 17.27877457435631924909, 	 0.51870254636888979416
5.86190000000000033253, 	 29.09369608196823620005, 	 17.13897702400232248010, 	 0.51653854544939259430
5.86300000000000043343, 	 28.77934063467098013689, 	 16.99108026023129269788, 	 0.51399111588369217340
5.86410000000000053433, 	 28.46091490407225776949, 	 16.83503723528523465802, 	 0.51103817253516836683
5.86520000000000063523, 	 28.13891559248331475374, 	 16.67083144865447152938, 	 0.50766063260639027188
5.86629999999999984794, 	 27.81380614837406994866, 	 16.49847684488348420473, 	 0.50384174220895061591
5.86739999999999994884, 	 27.48601699005101295370, 	 16.31801747708280458937, 	 0.49956665633998553755
5.86850000000000004974, 	 27.15595002528149493060, 	 16.12952699744825579842, 	 0.49482325798724846599
5.86960000000000015064, 	 26.82397635908782262959, 	 15.93310802754936439385, 	 0.48960258239148662929
5.87070000000000025153, 	 26.49043664642192652536, 	 15.72889144908374525755, 	 0.48389889369146193987
5.87180000000000035243, 	 26.15563914496889452721, 	 15.51703564212033903402, 	 0.47770969169928129139
5.87290000000000045333, 	 25.81985630164114198237, 	 15.29772568445785907443, 	 0.47103574617789972789
5.87400000000000055422, 	 25.48332127357702958648, 	 15.07117251414067204962, 	 0.46388114729731588781
5.87510000000000065512, 	 25.14623070240605784420, 	 14.83761204829310287323, 	 0.45625334125644007033
5.87619999999999986784, 	 24.80874931498871660551, 	 14.59730424576860663421, 	 0.44816313152832237821
5.87729999999999996874, 	 24.47101102738168521000, 	 14.35053209897249182347, 	 0.43962463853779071288
5.87840000000000006963, 	 24.13311806252083258073, 	 14.09760054145615271182, 	 0.43065521701905146168
5.87950000000000017053, 	 23.79513848792393559961, 	 13.83883526173970857087, 	 0.42127505680742227678
5.88060000000000027143, 	 23.45710706054658700737, 	 13.57458141909039639472, 	 0.41150742161832271071
5.88170000000000037232, 	 23.11902762072678640948, 	 13.30520226236900782624, 	 0.40137842129217615739
5.88280000000000047322, 	 22.78087505272488044739, 	 13.03107765746935697848, 	 0.39091656126084223244
5.88390000000000057412, 	 22.44259777810594513880, 	 12.75260253156118572804, 	 0.38015297569549916235
5.88500000000000067502, 	 22.10412009355243156961, 	 12.47018524312415799216, 	 0.36912089421796323574
5.88609999999999988773, 	 21.76534404668091582380, 	 12.18424588618510284732, 	 0.35785509007480748034
5.88719999999999998863, 	 21.42615189561800548290, 	 11.89521453610257850642, 	 0.34639151419571895252
5.88830000000000008953, 	 21.08640665334587538382, 	 11.60352944327824786797, 	 0.33476701866731045643
5.88940000000000019043, 	 20.74595493786631905664, 	 11.30963518048189264675, 	 0.32301908086186048585
5.89050000000000029132, 	 20.40462968290551870609, 	 11.01398074896600753902, 	 0.31118550275447848241
5.89160000000000039222, 	 20.06225257947028595140, 	 10.71701764817015067877, 	 0.29930409471689456424
5.89270000000000049312, 	 19.71863657362668575956, 	 10.41919791370999703872, 	 0.28741236363943428733
5.89380000000000059401, 	 19.37368782803081757038, 	 10.12097212869849371941, 	 0.27554741884271638508
5.89490000000000069491, 	 19.02726649322364238515, 	 9.82278741433821167561, 	 0.26374504636236045796
5.89599999999999990763, 	 18.67908218775197326522, 	 9.52508540709487405707, 	 0.25203988987476738659
5.89710000000000000853, 	 18.32891719932067786658, 	 9.22829768992372478920, 	 0.24046611259276753914
5.89820000000000010942, 	 17.97657160453695723845, 	 8.93284834768993185605, 	 0.22905712678750722588
5.89930000000000021032, 	 17.62185468218861927880, 	 8.63915112841579002634, 	 0.21784225065009241162
5.90040000000000031122, 	 17.26458490616916563454, 	 8.34760579930506096957, 	 0.20684828404983116035
5.90150000000000041211, 	 16.90459199467723294674, 	 8.05859676135489699789, 	 0.19610075730505721614
5.90260000000000051301, 	 16.54171915071335163816, 	 7.77249119397103171991, 	 0.18562330191226483755
5.90370000000000061391, 	 16.17582514264881510258, 	 7.48963728713959131511, 	 0.17543793691246714617
5.90480000000000071481, 	 15.80678615962675515050, 	 7.21036258177067423958, 	 0.16556438571516762792
5.90589999999999992752, 	 15.43449749997547115754, 	 6.93497243579163136218, 	 0.15601977356160809385
5.90700000000000002842, 	 15.05887518996187424136, 	 6.66374862816145796529, 	 0.14681863062168887257
5.90810000000000012932, 	 14.67985757179799222172, 	 6.39694810827245419205, 	 0.13797296138887149564
5.90920000000000023022, 	 14.29740682196200651788, 	 6.13480189600704672870, 	 0.12949229836628806112
5.91030000000000033111, 	 13.91151031740986887542, 	 5.87751413763599916962, 	 0.12138373671488775218
