x [cm], 	 0.40000000000000002220, 	 2.00000000000000000000, 	 3.60000000000000008882
0.00000000000000000000, 	 0.00000000000000000000, 	 0.00000000000000000000, 	 0.00000000000000000000
5.70020000000000059970, 	 2.82566132582424378583, 	 4.02745569399116032372, 	 5.25628608498774152480
5.70130000000000070060, 	 3.87452272608351666605, 	 4.57620087460407365398, 	 5.54783439924567378654
5.70239999999999991331, 	 6.26015797021898645625, 	 6.38984230460031188414, 	 6.90960185803618376355
5.70350000000000001421, 	 9.73052801974562875387, 	 9.36762642677065038299, 	 9.41831011124734907014
5.70460000000000011511, 	 14.12667752829148781757, 	 13.33894369591406103837, 	 12.86917182197226594553
5.70570000000000021600, 	 19.17101643552405931814, 	 18.03164127952790707354, 	 17.03550659459014937624
5.70680000000000031690, 	 24.47281182234405605413, 	 23.02450572515473226076, 	 21.58010657590689973517
5.70790000000000041780, 	 29.71828428971738489395, 	 28.04974872077603009757, 	 26.28156893979685904128
5.70900000000000051870, 	 34.79509375163201667647, 	 32.98097143313027856948, 	 30.98979457935381986999
5.71010000000000061959, 	 39.66750807755179408787, 	 37.73922592913273632576, 	 35.59204485630198178114
5.71119999999999983231, 	 44.34820653977779159050, 	 42.31470781490730104224, 	 40.05248903361695056446
5.71229999999999993321, 	 48.86940414721311753965, 	 46.72553575808133530245, 	 44.37360592886511767574
5.71340000000000003411, 	 53.28539469602265654657, 	 51.02736316090547319391, 	 48.59329663440438906719
5.71450000000000013500, 	 57.65340873035546565006, 	 55.27476866417401879517, 	 52.75247856513193056571
5.71560000000000023590, 	 62.01468335813957111213, 	 59.51002591839890243364, 	 56.88995910337215633490
5.71670000000000033680, 	 66.39613809386499099219, 	 63.76396175940945454386, 	 61.03881823517026106174
5.71780000000000043769, 	 70.81204648776439114499, 	 68.05458484460757517809, 	 65.21978781320528639753
5.71890000000000053859, 	 75.26406121912462765522, 	 72.38549738705178526743, 	 69.43823839828006327934
5.72000000000000063949, 	 79.74272551330395231162, 	 76.74728249562950566087, 	 73.68597240877178933260
5.72109999999999985221, 	 84.23164865082101471216, 	 81.12245227389067281365, 	 77.94686136224270001094
5.72219999999999995310, 	 88.71330984977463174346, 	 85.49220285277671393942, 	 82.20377634226673535522
5.72330000000000005400, 	 93.17435174966553290687, 	 89.84237443259792144090, 	 86.44421666295949080450
5.72440000000000015490, 	 97.60858289103586571400, 	 94.16670077474844902099, 	 90.66311512229859204126
5.72550000000000025580, 	 102.01713212537946162684, 	 98.46688936537236713775, 	 94.86270692483300592812
5.72660000000000035669, 	 106.40638314748663617593, 	 102.75032115339553229205, 	 99.05033414529628998935
5.72770000000000045759, 	 110.78492129962060630533, 	 107.02673612957677562463, 	 103.23543481492777118547
5.72880000000000055849, 	 115.16069151170172801812, 	 111.30517655372914020973, 	 107.42679913334795571700
5.72990000000000065938, 	 119.53911821833429485196, 	 115.59195936396687898196, 	 111.63072336757170432975
5.73099999999999987210, 	 123.92239159558744177048, 	 119.88987727044013809063, 	 115.85022204784446842041
5.73209999999999997300, 	 128.30971469885440683356, 	 124.19841334348214445527, 	 120.08513064473184783765
5.73320000000000007390, 	 132.69812042806873364498, 	 128.51457106323644552504, 	 124.33278572472403311622
5.73430000000000017479, 	 137.08347988896619540355, 	 132.83393928587710774991, 	 128.58897652041818560065
5.73540000000000027569, 	 141.46141114852306941430, 	 137.15166838926481318595, 	 132.84884053655767388591
5.73650000000000037659, 	 145.82792007156524505262, 	 141.46319920455991336894, 	 137.10761571630692401413
5.73760000000000047748, 	 150.17978160798466547021, 	 145.76473414140207296441, 	 141.36117088724893164908
5.73870000000000057838, 	 154.51467757726763352366, 	 150.05344112359244945765, 	 145.60627306692239812946
5.73980000000000067928, 	 158.83113572103289357074, 	 154.32742888656147783877, 	 149.84061746360038114290
5.74089999999999989200, 	 163.12833577501365311946, 	 158.58556107628470499549, 	 154.06268151084316286870
5.74199999999999999289, 	 167.40593420831362436729, 	 162.82706805568562913322, 	 158.26869503311914400001
5.74310000000000009379, 	 171.66448606931194831304, 	 167.05132741029183307546, 	 162.45874941459354090512
5.74420000000000019469, 	 175.90413675069393661943, 	 171.25901237287115463914, 	 166.63433434720298009779
5.74530000000000029559, 	 180.12470268062048717184, 	 175.45023732583916853400, 	 170.79579955208814112666
5.74640000000000039648, 	 184.32537754086948211807, 	 179.62433001731241688503, 	 174.94259688376408234944
5.74750000000000049738, 	 188.50486287471588298104, 	 183.77999819623900634724, 	 179.07350122412594828347
5.74860000000000059828, 	 192.66162439635553482731, 	 187.91563086230991075354, 	 183.18692526646250939848
5.74970000000000069917, 	 196.79414299559792311811, 	 192.02958978176738469301, 	 187.28121314466883973182
5.75079999999999991189, 	 200.90108556942320205962, 	 196.12041122279563865050, 	 191.35484630261981919830
5.75190000000000001279, 	 204.98137461918210533440, 	 200.18689580228308955157, 	 195.40654327148700986072
5.75300000000000011369, 	 209.03417355492999263333, 	 204.22810410843359818500, 	 199.43526857798488549633
5.75410000000000021458, 	 213.05882144373430264750, 	 208.24329349867622340753, 	 203.44018171623906710010
5.75520000000000031548, 	 217.05475072355261545454, 	 212.23183181885013937062, 	 207.42055851303476288194
5.75630000000000041638, 	 221.02141211657314556760, 	 216.19311486314524017871, 	 211.37571097101846362420
5.75740000000000051728, 	 224.95822025308169145319, 	 220.12650377166042403587, 	 215.30492292985150015738
5.75850000000000061817, 	 228.86452384193663078804, 	 224.03128800566253175930, 	 219.20740895688678051556
5.75960000000000071907, 	 232.73959814355151820564, 	 227.90667318990827538983, 	 223.08229819738247101668
5.76069999999999993179, 	 236.58265462842621218442, 	 231.75178914555772280437, 	 226.92863959905440651710
5.76180000000000003268, 	 240.39286112954027885280, 	 235.56571099433503491127, 	 230.74542166333614545692
5.76290000000000013358, 	 244.16936572979017228135, 	 239.34748576746193293729, 	 234.53159911144825855445
5.76400000000000023448, 	 247.91131866308043640856, 	 243.09615760247243088088, 	 238.28611871706860370068
5.76510000000000033538, 	 251.61788791689204458635, 	 246.81078627294593275110, 	 242.00793879408612951920
5.76620000000000043627, 	 255.28826686227839104504, 	 250.49045693601388506977, 	 245.69604011850884717205
5.76730000000000053717, 	 258.92167459051751166044, 	 254.13428153477741489041, 	 249.34942831164900667318
5.76840000000000063807, 	 262.51735099984421140107, 	 257.74139407141962010428, 	 252.96713001087289285351
5.76949999999999985079, 	 266.07454958339224049269, 	 261.31094303446127469215, 	 256.54818599690088376519
5.77059999999999995168, 	 269.59253056613357557580, 	 264.84208397168833926116, 	 260.09164426685600801648
5.77170000000000005258, 	 273.07055620847296495413, 	 268.33397432391649317651, 	 263.59655519553683689082
5.77280000000000015348, 	 276.50788898380108093988, 	 271.78577134722178243464, 	 267.06196953908272462286
5.77390000000000025437, 	 279.90379236293068743180, 	 275.19663307372786675842, 	 270.48693983884004410356
5.77500000000000035527, 	 283.25753400179138452586, 	 278.56572200565312869003, 	 273.87052403822406176914
5.77610000000000045617, 	 286.56838853496861929671, 	 281.89220757603754918819, 	 277.21178651503834089453
5.77720000000000055707, 	 289.83563813419851840081, 	 285.17526664098022592952, 	 280.50979889412167267437
5.77830000000000065796, 	 293.05857390847842225412, 	 288.41408621087202845956, 	 283.76364531788493650311
5.77939999999999987068, 	 296.23650109179067158038, 	 291.60787099705129321592, 	 286.97243281582001372954
5.78049999999999997158, 	 299.36874713782628987246, 	 294.75585382679361146074, 	 290.13530322863266519562
5.78160000000000007248, 	 302.45466903304850347922, 	 297.85730437253141644760, 	 293.25144187216068303314
5.78270000000000017337, 	 305.49365632843961293474, 	 300.91153241475370805347, 	 296.32007985043981079798
5.78380000000000027427, 	 308.48512876542332605823, 	 303.91788476661474760476, 	 299.34049002177914644562
5.78490000000000037517, 	 311.42853004305527520046, 	 306.87573793242114561508, 	 302.31197922071231687369
5.78600000000000047606, 	 314.32332072852966575738, 	 309.78449000595969664573, 	 305.23388028611606159757
5.78710000000000057696, 	 317.16897311476054710511, 	 312.64355492755879595279, 	 308.10554676442950494675
5.78820000000000067786, 	 319.96496950444850426720, 	 315.45236066939605734660, 	 310.92635156643035543311
5.78929999999999989058, 	 322.71080382868558444898, 	 318.21035117595937435908, 	 313.69568923681441674489
5.79039999999999999147, 	 325.40598539848093651017, 	 320.91699069203639282932, 	 316.41298045497092061851
5.79150000000000009237, 	 328.05004322365311963949, 	 323.57176873716798581881, 	 319.07767710345825662444
5.79260000000000019327, 	 330.64252960547219117871, 	 326.17420429303825812895, 	 321.68926655505208600516
5.79370000000000029416, 	 333.18302230306898081835, 	 328.72384841547335554424, 	 324.24727442651590081368
5.79480000000000039506, 	 335.67112517333532650810, 	 331.22028513150149819921, 	 326.75126563976158422520
5.79590000000000049596, 	 338.10646759519494253254, 	 333.66313093185681282193, 	 329.20084404942519995529
5.79700000000000059686, 	 340.48870316088670051613, 	 336.05203336794477309013, 	 331.59565109613561162405
5.79810000000000069775, 	 342.81750809830106163645, 	 338.38666925921546635436, 	 333.93536396573057345449
5.79919999999999991047, 	 345.09257976573491077943, 	 340.66674289930847407959, 	 336.21969364609572039626
5.80030000000000001137, 	 347.31363541014559359610, 	 342.89198449505096277790, 	 338.44838313946223706807
5.80140000000000011227, 	 349.48041124900834120126, 	 345.06214893063855697619, 	 340.62120595313274407090
5.80250000000000021316, 	 351.59266184302975943865, 	 347.17701484231304220884, 	 342.73796488030296814031
5.80360000000000031406, 	 353.65015967378468531024, 	 349.23638392185154089020, 	 344.79849100597931510492
5.80470000000000041496, 	 355.65269482108709553358, 	 351.24008033755842461687, 	 346.80264283376908451828
5.80580000000000051585, 	 357.60007464228914386695, 	 353.18795016389827878811, 	 348.75030542592952542691
5.80690000000000061675, 	 359.49212338113369469283, 	 355.07986073499483836713, 	 350.64138946693969955959
5.80800000000000071765, 	 361.32868166424867695241, 	 356.91569987076525194425, 	 352.47583019757081501666
5.80909999999999993037, 	 363.10960588211952426718, 	 358.69537497075828014204, 	 354.25358621473412767955
5.81020000000000003126, 	 364.83476748027720759637, 	 360.41881200211241775833, 	 355.97463816069279118892
5.81130000000000013216, 	 366.50405219909180232207, 	 362.08595442406374331767, 	 357.63898734373861998392
5.81240000000000023306, 	 368.11735930225722768228, 	 363.69676209507849762304, 	 359.24665433780569401279
5.81350000000000033396, 	 369.67460082693133927023, 	 365.25121020151090078798, 	 360.79767760167987944442
5.81460000000000043485, 	 371.17570087547147750229, 	 366.74928823213156192651, 	 362.29211214372855920374
5.81570000000000053575, 	 372.62059495422312238588, 	 368.19099900641555223046, 	 363.73002824156571932690
5.81680000000000063665, 	 374.00922935327383811455, 	 369.57635775123412713583, 	 365.11151021290675089404
5.81789999999999984936, 	 375.34156055503473226054, 	 370.90539121353413065663, 	 366.43665522691600244798
5.81899999999999995026, 	 376.61755465932986908228, 	 372.17813679615068167550, 	 367.70557214489406305802
5.82010000000000005116, 	 377.83718681671950889722, 	 373.39464170814608223736, 	 368.91838038295441037917
5.82120000000000015206, 	 379.00044066703776479699, 	 374.55496212644112574708, 	 370.07520879362823507108
5.82230000000000025295, 	 380.10730778358617953927, 	 375.65916236870657485269, 	 371.17619456527262400414
5.82340000000000035385, 	 381.15778712393426985727, 	 376.70731407762781373094, 	 372.22148213774823943822
5.82450000000000045475, 	 382.15188448714428659514, 	 377.69949541550317917427, 	 373.21122213207837603477
5.82560000000000055564, 	 383.08961196690205497362, 	 378.63579024126994454491, 	 374.14557021283047788529
5.82670000000000065654, 	 383.97098723847835799461, 	 379.51628701109893881949, 	 375.02468552116869204838
5.82779999999999986926, 	 384.79603264457193745329, 	 380.34107755965834485323, 	 375.84872931693502096095
5.82889999999999997016, 	 385.56477469129788460123, 	 381.11025651758262711155, 	 376.61786439611682908435
5.83000000000000007105, 	 386.27724068706396565176, 	 381.82391345762846412981, 	 377.33223650193758658133
5.83110000000000017195, 	 386.93344429343864021575, 	 382.48211853951858074652, 	 377.99197505254721818346
5.83220000000000027285, 	 387.53340446584707024158, 	 383.08495373784211324164, 	 378.59723312388109661697
5.83330000000000037375, 	 388.07716395165584799543, 	 383.63252559573976441243, 	 379.14818306532617953053
5.83440000000000047464, 	 388.56478265427011820066, 	 384.12495553795247360540, 	 379.64500594738461813904
5.83550000000000057554, 	 388.99632715618935208113, 	 384.56236922165095393211, 	 380.08788386064316000557
5.83660000000000067644, 	 389.37186419490132038845, 	 384.94489001948215900484, 	 380.47699481141705746268
5.83769999999999988916, 	 389.69145797548452492265, 	 385.27263595579177035688, 	 380.81250939176584324741
5.83879999999999999005, 	 389.95516923094453431986, 	 385.54571797673560240582, 	 381.09458778640760101553
5.83990000000000009095, 	 390.16305430712554880301, 	 385.76423817617569511640, 	 381.32337704086046414886
5.84100000000000019185, 	 390.31516476525217740345, 	 385.92828923104468685779, 	 381.49901080578922574205
5.84210000000000029274, 	 390.41154895585049189322, 	 386.03795654332941467146, 	 381.62161234058652325984
5.84320000000000039364, 	 390.45225553200828016998, 	 386.09332261741712954972, 	 381.69129952617902290513
5.84430000000000049454, 	 390.43733754598605401043, 	 386.09447197981796762178, 	 381.70819007790373689204
5.84540000000000059543, 	 390.36685568560528736270, 	 386.04149501860626969574, 	 381.67240545166430365498
5.84650000000000069633, 	 390.24087975999435684571, 	 385.93448973960857983911, 	 381.58407249340325506637
5.84759999999999990905, 	 390.05948817069912593070, 	 385.77356111645104874697, 	 381.44332250834560227304
5.84870000000000000995, 	 389.82276562158870092389, 	 385.55881831049526908828, 	 381.25028805194801861944
5.84980000000000011084, 	 389.53079970536077780707, 	 385.29037051199082952735, 	 381.00509827436718524041
5.85090000000000021174, 	 389.18367722537107056269, 	 384.96832243522089811449, 	 380.70787395183572243695
5.85200000000000031264, 	 388.78148111315465484950, 	 384.59277051056625396086, 	 380.35872334056540466918
5.85310000000000041354, 	 388.32428862390474932909, 	 384.16380061129302703193, 	 379.95773969286256033229
5.85420000000000051443, 	 387.81217082454372757638, 	 383.68148720184990452253, 	 379.50500035688196476258
5.85530000000000061533, 	 387.24519447387234549751, 	 383.14589619329524339264, 	 379.00057085912976617692
5.85640000000000071623, 	 386.62342471071087857126, 	 382.55708710927461879692, 	 378.44450532821434762809
5.85749999999999992895, 	 385.94692647871517010572, 	 381.91511528528315011499, 	 377.83685020901617690470
5.85860000000000002984, 	 385.21576723516648144141, 	 381.22003538584073112361, 	 377.17764828010359678956
5.85970000000000013074, 	 384.43001939185319315584, 	 380.47190442763962892059, 	 376.46694193971518416220
5.86080000000000023164, 	 383.58976185770910660722, 	 379.67078377093986318869, 	 375.70477545482492587325
5.86190000000000033253, 	 382.69508061310796165344, 	 378.81673999943552644254, 	 374.89119609519053710756
5.86300000000000043343, 	 381.74606852945504442687, 	 377.90984491716545790041, 	 374.02625435888785432326
5.86410000000000053433, 	 380.74282474788094532414, 	 376.95017498881549045109, 	 373.11000356036549874261
5.86520000000000063523, 	 379.68545384774205331269, 	 375.93781044820349279689, 	 372.14249895400638479259
5.86629999999999984794, 	 378.57406501145038646428, 	 374.87283441115096138674, 	 371.12379699896098372847
5.86739999999999994884, 	 377.40877177325739921798, 	 373.75533281811482311241, 	 370.05395578887828378356
5.86850000000000004974, 	 376.18969287116669875104, 	 372.58539571073197294027, 	 368.93303685181211903910
5.86960000000000015064, 	 374.91695390716893143690, 	 371.36311931212117087853, 	 367.76110742702377365276
5.87070000000000025153, 	 373.59068882896326613263, 	 370.08860769172156324203, 	 366.53824190893942613911
5.87180000000000035243, 	 372.21104027348667386832, 	 368.76197296962988048108, 	 365.26452159042219136609
5.87290000000000045333, 	 370.77815846683535028205, 	 367.38333383545671040338, 	 363.94003274692948934899
5.87400000000000055422, 	 369.29219916287019032097, 	 365.95281304009296263757, 	 362.56486390742526282338
5.87510000000000065512, 	 367.75332155801044109467, 	 364.47053497477850214636, 	 361.13910346524528449663
5.87619999999999986784, 	 366.16168705443033104530, 	 362.93662431533164181019, 	 359.66283853387983526773
5.87729999999999996874, 	 364.51745932493639656968, 	 361.35120622645030152853, 	 358.13615547327873400718
5.87840000000000006963, 	 362.82080563471129153186, 	 359.71440804172016214579, 	 356.55914191268476542973
5.87950000000000017053, 	 361.07189895839314885961, 	 358.02636187123732725013, 	 354.93188968058944965378
5.88060000000000027143, 	 359.27092027446758493170, 	 356.28720742634715179520, 	 353.25449792738487531096
5.88170000000000037232, 	 357.41806050325897103903, 	 354.49709444925457546560, 	 351.52707583528302848208
5.88280000000000047322, 	 355.51352177834382928268, 	 352.65618438590627192752, 	 349.74974455699208419901
5.88390000000000057412, 	 353.55751799116336542284, 	 350.76465121790573675753, 	 347.92263827424858391169
5.88500000000000067502, 	 351.55027460903608016451, 	 348.82268132936144411360, 	 346.04590402750915245633
5.88609999999999988773, 	 349.49202775691202305097, 	 346.83047245738509900548, 	 344.11970045251274541442
5.88719999999999998863, 	 347.38302247648118736834, 	 344.78823168059636827820, 	 342.14419629882956996880
5.88830000000000008953, 	 345.22351437996746881254, 	 342.69617967429024929515, 	 340.11957970234755066485
5.88940000000000019043, 	 343.01377832925811617315, 	 340.55456184926015339443, 	 338.04606981757439143621
5.89050000000000029132, 	 340.75411379068532369274, 	 338.36365243989098416932, 	 335.92391583632422680239
5.89160000000000039222, 	 338.44517940580482218138, 	 336.12369475833861542924, 	 333.75348032754010318968
5.89270000000000049312, 	 336.09331990942507673026, 	 333.83561084939208285505, 	 331.53445932383033323276
5.89380000000000059401, 	 333.69537439557581137706, 	 331.49976901782116556205, 	 329.26641213568768762343
5.89490000000000069491, 	 331.24872271502442799829, 	 329.11472748506440666461, 	 326.94897886737231829102
5.89599999999999990763, 	 328.75229815397739230320, 	 326.67980830173445383480, 	 324.58188592941610295384
5.89710000000000000853, 	 326.20623884349339505206, 	 324.19518776984773467120, 	 322.16532022275629287833
5.89820000000000010942, 	 323.61118952436044082788, 	 321.66162657653723044859, 	 319.70006481695185129865
5.89930000000000021032, 	 320.96803699118459007877, 	 319.08011582456106225436, 	 317.18709233095779609357
5.90040000000000031122, 	 318.27765520939487942087, 	 316.45161908282790363955, 	 314.62735446544792239365
5.90150000000000041211, 	 315.54076251351045812044, 	 313.77690179403066395025, 	 312.02158792289424127375
5.90260000000000051301, 	 312.75786528128827512774, 	 311.05649742086563946941, 	 309.37036643761109644402
