x [cm], 	 0.69214285714285717077, 	 48.45000000000000284217, 	 96.20785714285715073402
0.00000000000000000000, 	 0.00000000000000000000, 	 0.00000000000000000000, 	 0.00000000000000000000
5.70020000000000059970, 	 -0.03411361392697169481, 	 1.76856719331152478780, 	 3.71257943391852895942
5.70130000000000070060, 	 -0.02326063168459972103, 	 1.76917336095632182769, 	 3.69794066336823945562
5.70239999999999991331, 	 -0.01160666957630189858, 	 1.77018146195271874888, 	 3.68346839488338950730
5.70350000000000001421, 	 0.00082344374942554775, 	 1.77158370943099896522, 	 3.66916287403346252916
5.70460000000000011511, 	 0.01400844231584755240, 	 1.77336893307773757478, 	 3.65502435165701422548
5.70570000000000021600, 	 0.02792796381864060679, 	 1.77552598918108373027, 	 3.64105305646495480687
5.70680000000000031690, 	 0.04255944467716006596, 	 1.77804421197044537628, 	 3.62724921755647855548
5.70790000000000041780, 	 0.05787802614216262798, 	 1.78091332256106493759, 	 3.61361285599463855078
5.70900000000000051870, 	 0.07385740033278689887, 	 1.78412344122080135378, 	 3.60014387914800870760
5.71010000000000061959, 	 0.09047094741577815791, 	 1.78766507203880897769, 	 3.58684229448390201611
5.71119999999999983231, 	 0.10769292986962694658, 	 1.79152907044120235369, 	 3.57370825156199911632
5.71229999999999993321, 	 0.12549950913535473651, 	 1.79570659737459670247, 	 3.56074197864877728392
5.71340000000000003411, 	 0.14386639896328862198, 	 1.80018906761083075097, 	 3.54794370594314933953
5.71450000000000013500, 	 0.16276896729080364556, 	 1.80496810512406957727, 	 3.53531361265199572941
5.71560000000000023590, 	 0.18218436736287207944, 	 1.81003551332484402536, 	 3.52285180348462034772
5.71670000000000033680, 	 0.20209391729020234618, 	 1.81538325327917937635, 	 3.51055831121125683225
5.71780000000000043769, 	 0.22248597453931415191, 	 1.82100342251178104469, 	 3.49843311087081554334
5.71890000000000053859, 	 0.24335971403077616415, 	 1.82688826013221228273, 	 3.48647612236982240574
5.72000000000000063949, 	 0.26472985922235492406, 	 1.83303017855052297058, 	 3.47468720852303025737
5.72109999999999985221, 	 0.28663206470714730489, 	 1.83942186446964606183, 	 3.46306617276169559361
5.72219999999999995310, 	 0.30912848931122682838, 	 1.84605647000066364072, 	 3.45161276367469582738
5.72330000000000005400, 	 0.33231305277486855587, 	 1.85292793512222830898, 	 3.44032670185204736413
5.72440000000000015490, 	 0.35631586238338375239, 	 1.86003146911097161365, 	 3.42920768359917937929
5.72550000000000025580, 	 0.38130631804085945991, 	 1.86736422559221915130, 	 3.41825540355796064773
5.72660000000000035669, 	 0.40749484943098818190, 	 1.87492617387488746949, 	 3.40746955239225357559
5.72770000000000045759, 	 0.43513272620400067492, 	 1.88272118282893718977, 	 3.39684982503913035501
5.72880000000000055849, 	 0.46451014894399561550, 	 1.89075828456313010939, 	 3.38639596032299472483
5.72990000000000065938, 	 0.49595015406083087228, 	 1.89905309736846361623, 	 3.37610776542477530882
5.73099999999999987210, 	 0.52981265449503567311, 	 1.90762936184490339286, 	 3.36598534354896594678
5.73209999999999997300, 	 0.56648017367552627732, 	 1.91652049169420557462, 	 3.35602931998475861874
5.73320000000000007390, 	 0.60634452831881024970, 	 1.92577109676999236321, 	 3.34624067606464059565
5.73430000000000017479, 	 0.64980761367717398969, 	 1.93543846477295744535, 	 3.33662093731375941630
5.73540000000000027569, 	 0.69727739884378536761, 	 1.94559388160599500139, 	 3.32717277571647285228
5.73650000000000037659, 	 0.74916027995539935525, 	 1.95632367620867975155, 	 3.31790021601814677510
5.73760000000000047748, 	 0.80586440245977020158, 	 1.96772997207832656130, 	 3.30880876724017269908
5.73870000000000057838, 	 0.86779461821364856089, 	 1.97993112222073763817, 	 3.29990630422176289827
5.73980000000000067928, 	 0.93521662469421928954, 	 1.99306183168027639674, 	 3.29120348595876865971
5.74089999999999989200, 	 1.01028694786642603276, 	 2.00727307796782294957, 	 3.28271361924901672324
5.74199999999999999289, 	 1.09194526681468229157, 	 2.02273192828458414638, 	 3.27445284418675974791
5.74310000000000009379, 	 1.17700244747032245485, 	 2.03962206199165407838, 	 3.26644045701087559763
5.74420000000000019469, 	 1.26775096902597850246, 	 2.05814620671826498111, 	 3.25869925952434513761
5.74530000000000029559, 	 1.36630361761112606445, 	 2.07852039713443259572, 	 3.25125579526575725353
5.74640000000000039648, 	 1.47274493837087572246, 	 2.10095995065069374164, 	 3.24414081316524649523
5.74750000000000049738, 	 1.58710505002151425202, 	 2.12567816907368856150, 	 3.23738931044526223602
5.74860000000000059828, 	 1.70955230713048744740, 	 2.15289628742323380095, 	 3.23104052462476021290
5.74970000000000069917, 	 1.84021704760101756371, 	 2.18284830071565716381, 	 3.22513776597855406081
5.75079999999999991189, 	 1.97913942113739893536, 	 2.21577975631620605057, 	 3.21972805585798305117
5.75190000000000001279, 	 2.12633413386843939108, 	 2.25194450051974781601, 	 3.21486173606517189327
5.75300000000000011369, 	 2.28184802664029851016, 	 2.29160097860447331541, 	 3.21059197391300532587
5.75410000000000021458, 	 2.44574774084957624609, 	 2.33500847125483179667, 	 3.20697699590157014882
5.75520000000000031548, 	 2.61805651748481604812, 	 2.38242384076694735384, 	 3.20407137346293868774
5.75630000000000041638, 	 2.79874536969873988212, 	 2.43409904451386704949, 	 3.20193385601130442453
5.75740000000000051728, 	 2.98776366582353780643, 	 2.49027910845535194184, 	 3.20062908706684634552
5.75850000000000061817, 	 3.18504863505793878176, 	 2.55120036070782019166, 	 3.20022469044374746616
5.75960000000000071907, 	 3.39052215692508784883, 	 2.61708839491896938512, 	 3.20079010370134753316
5.76069999999999993179, 	 3.60410491280319078555, 	 2.68815443773427276142, 	 3.20239557386930862037
5.76180000000000003268, 	 3.82570757464075672516, 	 2.76451412234470605966, 	 3.20511161756017237678
5.76290000000000013358, 	 4.05522369122318249168, 	 2.84632654410206020756, 	 3.20900947464878649740
5.76400000000000023448, 	 4.29253130702678209474, 	 2.93383880648355921394, 	 3.21415976216806376087
5.76510000000000033538, 	 4.53748763524948728332, 	 3.02720075502246155352, 	 3.22063247483526371440
5.76620000000000043627, 	 4.78992643340965340570, 	 3.12654490108034543994, 	 3.22812218730162747704
5.76730000000000053717, 	 5.04965732652391974256, 	 3.23198581407711849067, 	 3.23638414409726982157
5.76840000000000063807, 	 5.31648631224302192777, 	 3.34361894969532569277, 	 3.24547454430611193033
5.76949999999999985079, 	 5.59020929890520612560, 	 3.46151897073302050600, 	 3.25572481674206626323
5.77059999999999995168, 	 5.87061204403884762115, 	 3.58573763071987983153, 	 3.26796878826877224000
5.77170000000000005258, 	 6.15747056580091189915, 	 3.71630319205537995586, 	 3.28388322229915985417
5.77280000000000015348, 	 6.45055115339472884273, 	 3.85322330406820867665, 	 3.30250055778649365124
5.77390000000000025437, 	 6.74961027831176707537, 	 3.99649079028815323866, 	 3.32316917404387401902
5.77500000000000035527, 	 7.05439494606967798518, 	 4.14608931531216473587, 	 3.34545097373597100088
5.77610000000000045617, 	 7.36464257317705595085, 	 4.30199138775331757500, 	 3.36920617598130167636
5.77720000000000055707, 	 7.68007991251619781536, 	 4.46415205190308572725, 	 3.39473085505838145792
5.77830000000000065796, 	 8.00042972132876428759, 	 4.63250354826516907991, 	 3.42218245681987554008
5.77939999999999987068, 	 8.32540715022301114345, 	 4.80695349565582308315, 	 3.45163913260374632941
5.78049999999999997158, 	 8.65472021358207932451, 	 4.98738648229327274919, 	 3.48293573304115344769
5.78160000000000007248, 	 8.98806984970829425663, 	 5.17366681560739749557, 	 3.51609176403220846652
5.78270000000000017337, 	 9.32515036711332356845, 	 5.36564048426516748691, 	 3.55117638895490639328
5.78380000000000027427, 	 9.66565011210833446853, 	 5.56313588269158465494, 	 3.58825598965229008996
5.78490000000000037517, 	 10.00925221501971584814, 	 5.76596446765846781801, 	 3.62738045907225226117
5.78600000000000047606, 	 10.35563515373952725440, 	 5.97392198564406662342, 	 3.66858179760769287370
5.78710000000000057696, 	 10.70447309070754648985, 	 6.18678990345572366039, 	 3.71185917826305677991
5.78820000000000067786, 	 11.05543618202737299328, 	 6.40433666626243169873, 	 3.75717413355962071009
5.78929999999999989058, 	 11.40819086486912148359, 	 6.62631878944508390106, 	 3.80449984661912621320
5.79039999999999999147, 	 11.76240006994757081316, 	 6.85248175437859874393, 	 3.85382327133625812721
5.79150000000000009237, 	 12.11772180357490036329, 	 7.08256064791105277578, 	 3.90513326130665516800
5.79260000000000019327, 	 12.47381376743549985520, 	 7.31628080448993944884, 	 3.95841707953341748194
5.79370000000000029416, 	 12.83033080530784886264, 	 7.55335855267675171376, 	 4.01365887079777206026
5.79480000000000039506, 	 13.18692578567796047651, 	 7.79350211698767658675, 	 4.07083838099169792457
5.79590000000000049596, 	 13.54325025155705830571, 	 8.03641261964005693130, 	 4.12992887864952606947
5.79700000000000059686, 	 13.89895457735509154418, 	 8.28178502691495665999, 	 4.19089873097241127908
5.79810000000000069775, 	 14.25368755960886169021, 	 8.52930906098758434553, 	 4.25371081529013306266
5.79919999999999991047, 	 14.60709828674304944229, 	 8.77867007200152471569, 	 4.31832385953329556116
5.80030000000000001137, 	 14.95883550360083269481, 	 9.02954985757460981688, 	 4.38469363976022652452
5.80140000000000011227, 	 15.30854889260254303451, 	 9.28162749287603361381, 	 4.45277317500230651603
5.80250000000000021316, 	 15.65588911458664433951, 	 9.53458016074566572229, 	 4.52251290795659688371
5.80360000000000031406, 	 16.00050685541974004877, 	 9.78808392016320816253, 	 4.59386087735625281425
5.80470000000000041496, 	 16.34205375166597917769, 	 10.04181444551985791236, 	 4.66676299066112676428
5.80580000000000051585, 	 16.68018633298762765094, 	 10.29544779047009939177, 	 4.74116330560593990384
5.80690000000000061675, 	 17.01456437868526450075, 	 10.54866113614553668754, 	 4.81700356787566530414
5.80800000000000071765, 	 17.34485179064953186412, 	 10.80113346711601174377, 	 4.89422356675379877089
5.80909999999999993037, 	 17.67071722410839029749, 	 11.05254630835198526029, 	 4.97276139752720958143
5.81020000000000003126, 	 17.99183523444921206647, 	 11.30258463280430625275, 	 5.05255363058410633670
5.81130000000000013216, 	 18.30788667491044563462, 	 11.55093801515069884545, 	 5.13353544693021213163
5.81240000000000023306, 	 18.61855890754847919766, 	 11.79730220769399906544, 	 5.21564094235149067202
5.81350000000000033396, 	 18.92354613888421255297, 	 12.04138005116952747642, 	 5.29880313327905305698
5.81460000000000043485, 	 19.22254985141142213934, 	 12.28286947638396320315, 	 5.38295361149602236139
5.81570000000000053575, 	 19.51527928354507679387, 	 12.52147175305995219219, 	 5.46802312690344560764
5.81680000000000063665, 	 19.80145192066432713318, 	 12.75690265635567932634, 	 5.55394371152895871546
5.81789999999999984936, 	 20.08079397275893995811, 	 12.98888508727568158463, 	 5.64065035351380394957
5.81899999999999995026, 	 20.35304082046350515611, 	 13.21714947973112508350, 	 5.72806798704504505082
5.82010000000000005116, 	 20.61793743219732988337, 	 13.44143466756271365625, 	 5.81611645250386111172
5.82120000000000015206, 	 20.87523876797804689431, 	 13.66148800325095180597, 	 5.90471617212701449517
5.82230000000000025295, 	 21.12471017045062637862, 	 13.87706562330451909304, 	 5.99379114538697788106
5.82340000000000035385, 	 21.36612774014482951657, 	 14.08793270710458678252, 	 6.08326854782817250111
5.82450000000000045475, 	 21.59927868880662416018, 	 14.29386383480404631996, 	 6.17307718304767139017
5.82560000000000055564, 	 21.82396166427416162037, 	 14.49464339416029901031, 	 6.26314681686274621342
5.82670000000000065654, 	 22.03998704261930186021, 	 14.69006580393105032556, 	 6.35340777564852476900
5.82779999999999986926, 	 22.24717718387464771013, 	 14.87993573549261050459, 	 6.44379062749287978562
5.82889999999999997016, 	 22.44536675921295909575, 	 15.06406835386606779537, 	 6.53422608012589822835
5.83000000000000007105, 	 22.63440276561307129555, 	 15.24228954510677525036, 	 6.62464500678639200970
5.83110000000000017195, 	 22.81414423011252878837, 	 15.41443611382005052235, 	 6.71497855772108298567
5.83220000000000027285, 	 22.98446339947408745275, 	 15.58035594580738703030, 	 6.80515831260402137559
5.83330000000000037375, 	 23.14524615349893110761, 	 15.73990813340962269251, 	 6.89511644445141946846
5.83440000000000047464, 	 23.29639135476171318828, 	 15.89296306587005247479, 	 6.98478587856031918335
5.83550000000000057554, 	 23.43781023747797931378, 	 16.03940249287752095597, 	 7.07410043877313210459
5.83660000000000067644, 	 23.56942620989185144253, 	 16.17911956573309240071, 	 7.16299497862181411278
5.83769999999999988916, 	 23.69117493174746158502, 	 16.31201885345920388204, 	 7.25140549771641751420
5.83879999999999999005, 	 23.80300452226686047652, 	 16.43801632951774394087, 	 7.33926924505373001750
5.83990000000000009095, 	 23.90487577772821481403, 	 16.55703932778732578868, 	 7.42652481133816966263
5.84100000000000019185, 	 23.99676204962149839162, 	 16.66902646995939107910, 	 7.51311221227550163348
5.84210000000000029274, 	 24.07864927870216220640, 	 16.77392756877681989636, 	 7.59897298135691023901
5.84320000000000039364, 	 24.15053555210684521626, 	 16.87170351630740583460, 	 7.68405028082149943458
5.84430000000000049454, 	 24.21243169133644457247, 	 16.96232615542126609398, 	 7.76828885339133012877
5.84540000000000059543, 	 24.26436183154281067686, 	 17.04577812995322361189, 	 7.85163509488613176046
5.84650000000000069633, 	 24.30636221725528756110, 	 17.12205270892686570505, 	 7.93403713200988125465
5.84759999999999990905, 	 24.33848418754014630849, 	 17.19115359792734665234, 	 8.01544488232145191375
5.84870000000000000995, 	 24.36077743425352082340, 	 17.25309475723970820127, 	 8.09581010366075837226
5.84980000000000011084, 	 24.37330927036848038369, 	 17.30790023348065886921, 	 8.17508645074035733558
5.85090000000000021174, 	 24.37616403039875834224, 	 17.35560405123188232324, 	 8.25322954037084599577
5.85200000000000031264, 	 24.36943518443915479565, 	 17.39625007271935785980, 	 8.33019688967221938469
5.85310000000000041354, 	 24.35322443190606023222, 	 17.42989154459768030847, 	 8.40594797503272062045
5.85420000000000051443, 	 24.32764161303018468629, 	 17.45658734543809487150, 	 8.48044430957688355477
5.85530000000000061533, 	 24.29280488214985567197, 	 17.47640845095122941188, 	 8.55364941454518579178
5.85640000000000071623, 	 24.24884089356534744297, 	 17.48943372631537229722, 	 8.62552893603004910972
5.85749999999999992895, 	 24.19588481414909253431, 	 17.49574988756985760574, 	 8.69605068736040287547
5.85860000000000002984, 	 24.13408012172224204051, 	 17.49545162341000903439, 	 8.76518453523944884864
5.85970000000000013074, 	 24.06357823588752609112, 	 17.48864107096024511634, 	 8.83290227980777764571
5.86080000000000023164, 	 23.98453805577712572017, 	 17.47542727669503648258, 	 8.89917755308582059115
5.86190000000000033253, 	 23.89712547150533694662, 	 17.45592590444637437486, 	 8.96398585952315407610
5.86300000000000043343, 	 23.80151288397413722464, 	 17.43025889604616551765, 	 9.02730466799172504011
5.86410000000000053433, 	 23.69787875116657360763, 	 17.39855410325986184716, 	 9.08911346175415957305
5.86520000000000063523, 	 23.58640543763310049030, 	 17.36094490861233197165, 	 9.14939374929317317253
5.86629999999999984794, 	 23.46726227611022252972, 	 17.31756975369986406577, 	 9.20812949660344770564
5.86739999999999994884, 	 23.34065563499188300511, 	 17.26857014159254077867, 	 9.26530846953954068113
5.86850000000000004974, 	 23.20677332742197762627, 	 17.21408750170944301772, 	 9.32092091996236682405
5.86960000000000015064, 	 23.06576521105219512719, 	 17.15426556141954606005, 	 9.37495529315508591139
5.87070000000000025153, 	 22.91779891036077643207, 	 17.08927826844373853987, 	 9.42739941978356199570
5.87180000000000035243, 	 22.76309333145820801292, 	 17.01932916418411068094, 	 9.47824258766721960967
5.87290000000000045333, 	 22.60188901285760110227, 	 16.94452395540896105786, 	 9.52747665214206129747
5.87400000000000055422, 	 22.43441623145056595945, 	 16.86503176529911840476, 	 9.57509629859787203543
5.87510000000000065512, 	 22.26094211364116048912, 	 16.78101585784122917744, 	 9.62109891659271454500
5.87619999999999986784, 	 22.08174192531457080690, 	 16.69264216713947490689, 	 9.66548446713581377310
5.87729999999999996874, 	 21.89706993560917069885, 	 16.60007786929965689637, 	 9.70825485444649416422
5.87840000000000006963, 	 21.70715911002635678528, 	 16.50349144615772800648, 	 9.74941386353706107570
5.87950000000000017053, 	 21.51222810407780983155, 	 16.40305255171321974217, 	 9.78896697271015803210
5.88060000000000027143, 	 21.31248775878205847789, 	 16.29893188858779851103, 	 9.82692109856041184912
5.88170000000000037232, 	 21.10814544802783743194, 	 16.19130091392620585111, 	 9.86328439710474214053
5.88280000000000047322, 	 20.89940749421270993480, 	 16.08033139609351280797, 	 9.89806615259472621915
5.88390000000000057412, 	 20.68647997707978802850, 	 15.96619490150110998172, 	 9.93127668491793080818
5.88500000000000067502, 	 20.46956811693270594787, 	 15.84906226825902564315, 	 9.96292719795292391893
5.88609999999999988773, 	 20.24887899773969834882, 	 15.72910309223218838781, 	 9.99302982513768789374
5.88719999999999998863, 	 20.02461544872650733851, 	 15.60648528389367228897, 	 10.02159786079642067591
5.88830000000000008953, 	 19.79699213906598842527, 	 15.48137471591594405140, 	 10.04864573203487765340
5.88940000000000019043, 	 19.56627138078358285611, 	 15.35393494072420317309, 	 10.07418868707516779182
5.89050000000000029132, 	 19.33267898540225715465, 	 15.22432690099596364064, 	 10.09824224612892074049
5.89160000000000039222, 	 19.09640833189354935939, 	 15.09270873842958593514, 	 10.12082256588386997009
5.89270000000000049312, 	 18.85764183058680742988, 	 14.95923572148345748190, 	 10.14194638471271225910
5.89380000000000059401, 	 18.61655802832601480645, 	 14.82406020741430019427, 	 10.16163189578771230970
5.89490000000000069491, 	 18.37333398370820347623, 	 14.68733142120984780377, 	 10.17989865792065806716
5.89599999999999990763, 	 18.12814584315334798248, 	 14.54919518626875429845, 	 10.19676634171787199534
5.89710000000000000853, 	 17.88116841280279345483, 	 14.40979369759485528846, 	 10.21225769298357555215
5.89820000000000010942, 	 17.63257480978029434482, 	 14.26926524874317792069, 	 10.22639173795825406899
5.89930000000000021032, 	 17.38253612268956160847, 	 14.12774392837283166102, 	 10.23919479717378422379
5.90040000000000031122, 	 17.13122030555563668486, 	 13.98535944755999338440, 	 10.25069406398585059037
5.90150000000000041211, 	 16.87879175566410339115, 	 13.84223703893287549249, 	 10.26091011149020459925
5.90260000000000051301, 	 16.62541082958621174726, 	 13.69849751818783012425, 	 10.26985741100440563400
5.90370000000000061391, 	 16.37123199090413905310, 	 13.55425725845663009750, 	 10.27755277542484968478
5.90480000000000071481, 	 16.11640824273033700820, 	 13.40962808044151088893, 	 10.28401663850633696029
5.90589999999999992752, 	 15.86112785636676925094, 	 13.26471717578591835718, 	 10.28927131973452269165
5.90700000000000002842, 	 15.60565177526278013431, 	 13.11962699542701749067, 	 10.29333941116454198550
5.90810000000000012932, 	 15.35009746550779219376, 	 12.97445526346695032771, 	 10.29624303875805679809
5.90920000000000023022, 	 15.09455981186778039671, 	 12.82929522129976085409, 	 10.29800375139489077014
5.91030000000000033111, 	 14.83913490568699167227, 	 12.68423603183385850457, 	 10.29864266974032993573
5.91140000000000043201, 	 14.58392269737526980578, 	 12.53936294655333938408, 	 10.29818066866564230111
