x [cm], 	 0.69214285714285717077, 	 48.45000000000000284217, 	 96.20785714285715073402
0.00000000000000000000, 	 0.00000000000000000000, 	 0.00000000000000000000, 	 0.00000000000000000000
5.70020000000000059970, 	 0.18615868133978791255, 	 4.82779224583502308832, 	 7.32932225742590492956
5.70130000000000070060, 	 -0.00878764168387794788, 	 4.64952465944367254735, 	 7.30284288937001235809
5.70239999999999991331, 	 -0.20341906865695932871, 	 4.47181421457132355357, 	 7.27613148550140209636
5.70350000000000001421, 	 -0.39770915614717805564, 	 4.29468087846251567186, 	 7.24918376596441582649
5.70460000000000011511, 	 -0.59163128367306605515, 	 4.11814418148109151474, 	 7.22200220641554047063
5.70570000000000021600, 	 -0.78515865762279657414, 	 3.94222323654895001610, 	 7.19458921201919121557
5.70680000000000031690, 	 -0.97826431878373798501, 	 3.76693676011051481467, 	 7.16693760015643555050
5.70790000000000041780, 	 -1.17092115918092165572, 	 3.59230309310934314837, 	 7.13910750557562945318
5.70900000000000051870, 	 -1.36310194066941914315, 	 3.41834022073338061887, 	 7.11112301669127866433
5.71010000000000061959, 	 -1.55477928857224623194, 	 3.24506579025141927985, 	 7.08299333947265896683
5.71119999999999983231, 	 -1.74592569626148641504, 	 3.07249712672997166152, 	 7.05472157664879340189
5.71229999999999993321, 	 -1.93651353747891397106, 	 2.90065124668046170342, 	 7.02630717204738797221
5.71340000000000003411, 	 -2.12651507626033220433, 	 2.72954499761055968676, 	 6.99774821360160270700
5.71450000000000013500, 	 -2.31590247563344142634, 	 2.55919816327378413234, 	 6.96904209928731521728
5.71560000000000023590, 	 -2.50464776960249135840, 	 2.38962984380221410419, 	 6.94018564609921639885
5.71670000000000033680, 	 -2.69272236663084507668, 	 2.22084965108104004372, 	 6.91117453612570376009
5.71780000000000043769, 	 -2.88009786118342914207, 	 2.05287210212523918429, 	 6.88200673107692573183
5.71890000000000053859, 	 -3.06674630038738849080, 	 1.88571259167676164026, 	 6.85268106861854597867
5.72000000000000063949, 	 -3.25263969841794908788, 	 1.71938622403397367577, 	 6.82319663340184323630
5.72109999999999985221, 	 -3.43774998137228982031, 	 1.55390786282682391573, 	 6.79355266764858622963
5.72219999999999995310, 	 -3.62204901220483854729, 	 1.38929212668645063466, 	 6.76374890931218786250
5.72330000000000005400, 	 -3.80550859097097360362, 	 1.22555339563185339280, 	 6.73378578091202317779
5.72440000000000015490, 	 -3.98810011584105739146, 	 1.06270581554644660827, 	 6.70366425464442450277
5.72550000000000025580, 	 -4.16979506189404336425, 	 0.90076330195808218537, 	 6.67338575854383897479
5.72660000000000035669, 	 -4.35056530895849391527, 	 0.73973954284494725098, 	 6.64295210635319044457
5.72770000000000045759, 	 -4.53038257453608750325, 	 0.57964800089663626181, 	 6.61236545894479466057
5.72880000000000055849, 	 -4.70921844706252290536, 	 0.42050191545001602833, 	 6.58162609927417108224
5.72990000000000065938, 	 -4.88704432813422418036, 	 0.26231430400388677793, 	 6.55073336125295213606
5.73099999999999987210, 	 -5.06378688169002977304, 	 0.10509796331622561771, 	 6.51969543622614722267
5.73209999999999997300, 	 -5.23933701418542074890, 	 -0.05113452976094631786, 	 6.48851913177261163668
5.73320000000000007390, 	 -5.41369535473573382234, 	 -0.20637081746640981161, 	 6.45721086201190885845
5.73430000000000017479, 	 -5.58684855988145034900, 	 -0.36059875984120448589, 	 6.42577697053784646641
5.73540000000000027569, 	 -5.75878013218285911279, 	 -0.51380643268565739934, 	 6.39422320371381669446
5.73650000000000037659, 	 -5.92947214492068042091, 	 -0.66598212495253383825, 	 6.36255461141750977561
5.73760000000000047748, 	 -6.09890557438996516737, 	 -0.81711433591766680085, 	 6.33077561553321199739
5.73870000000000057838, 	 -6.26706046197381017038, 	 -0.96719177250874310836, 	 6.29889009782618902733
5.73980000000000067928, 	 -6.43391605472563377077, 	 -1.11620334693658862513, 	 6.26690150053782968342
5.74089999999999989200, 	 -6.59945094014228850199, 	 -1.26413817437941333743, 	 6.23481292453933377828
5.74199999999999999289, 	 -6.76364317318352803454, 	 -1.41098557035998473097, 	 6.20262721669333494390
5.74310000000000009379, 	 -6.92647040791884727184, 	 -1.55673504761668879404, 	 6.17034704355146956800
5.74420000000000019469, 	 -7.08791001249718100041, 	 -1.70137631247931730982, 	 6.13797495132707027210
5.74530000000000029559, 	 -7.24793912774502935292, 	 -1.84489926089660905006, 	 6.10551341334381270087
5.74640000000000039648, 	 -7.40653474117993138037, 	 -1.98729397431075116565, 	 6.07296486663020829155
5.74750000000000049738, 	 -7.56367375804415065232, 	 -2.12855071556218167217, 	 6.04033173940715961692
5.74860000000000059828, 	 -7.71933306656846340843, 	 -2.26865992496697677083, 	 6.00761647110866903176
5.74970000000000069917, 	 -7.87348960394768759841, 	 -2.40761221666037705802, 	 5.97482152639144992179
5.75079999999999991189, 	 -8.02612039382031561274, 	 -2.54539837525532197660, 	 5.94194940438284380235
5.75190000000000001279, 	 -8.17720258156594859145, 	 -2.68200935282916486102, 	 5.90900264421569332285
5.75300000000000011369, 	 -8.32671347055708999108, 	 -2.81743626622599974141, 	 5.87598382771613803044
5.75410000000000021458, 	 -8.47463055433811618400, 	 -2.95167039464522673597, 	 5.84289557995052089012
5.75520000000000031548, 	 -8.62093154545914686082, 	 -3.08470317747740274683, 	 5.80974056820107787047
5.75630000000000041638, 	 -8.76559440127491917849, 	 -3.21652621234435098785, 	 5.77652149982554874441
5.75740000000000051728, 	 -8.90859734685279569533, 	 -3.34713125330029903637, 	 5.74324111936071446394
5.75850000000000061817, 	 -9.04991889564839802063, 	 -3.47651020915329578287, 	 5.70990220515171209570
5.75960000000000071907, 	 -9.18953787085682094471, 	 -3.60465514187024149706, 	 5.67650756572514492149
5.76069999999999993179, 	 -9.32743341876588161199, 	 -3.73155826503397403116, 	 5.64306003607224671015
5.76180000000000003268, 	 -9.46358502546122970500, 	 -3.85721194232771225074, 	 5.60956247396660678817
5.76290000000000013358, 	 -9.59797253026942165377, 	 -3.98160868602933826210, 	 5.57601775640748531515
5.76400000000000023448, 	 -9.73057613021389222752, 	 -4.10474115549795914859, 	 5.54242877625307439615
5.76510000000000033538, 	 -9.86137639154671674646, 	 -4.22660215563664110050, 	 5.50879843908695310262
5.76620000000000043627, 	 -9.99035426005107574099, 	 -4.34718463532343069033, 	 5.47512966034441461716
5.76730000000000053717, 	 -10.11749107263140956547, 	 -4.46648168580520898985, 	 5.44142536271246157753
5.76840000000000063807, 	 -10.24276856616105924047, 	 -4.58448653904987146745, 	 5.40768847380738559849
5.76949999999999985079, 	 -10.36616887766849437469, 	 -4.70119256606026159062, 	 5.37392192412640223864
5.77059999999999995168, 	 -10.48767454759223127780, 	 -4.81659327516312618656, 	 5.34012864526427399881
5.77170000000000005258, 	 -10.60726852237269568491, 	 -4.93068231027589032323, 	 5.30631156838192374892
5.77280000000000015348, 	 -10.72493415835184293883, 	 -5.04345344914191695551, 	 5.27247362291135512891
5.77390000000000025437, 	 -10.84065527072058188196, 	 -5.15490060153608187221, 	 5.23861773547943876395
5.77500000000000035527, 	 -10.95441611611538057502, 	 -5.26501780745321212862, 	 5.20474682864665627591
5.77610000000000045617, 	 -11.06620132417035407002, 	 -5.37379923529287406581, 	 5.17086378233103882707
5.77720000000000055707, 	 -11.17599523056788513031, 	 -5.48123918005173482726, 	 5.13697143363117980641
5.77830000000000065796, 	 -11.28376696529624112486, 	 -5.58733206153240491432, 	 5.10307269164171017906
5.77939999999999987068, 	 -11.38951498784854265978, 	 -5.69207242257369294691, 	 5.06917048887996468665
5.78049999999999997158, 	 -11.49325668547418466403, 	 -5.79545492730174149898, 	 5.03526775204173304701
5.78160000000000007248, 	 -11.59499157525162083004, 	 -5.89747435941789444058, 	 5.00136739671238395033
5.78270000000000017337, 	 -11.69470264782850499330, 	 -5.99812562055473019740, 	 4.96747232731953669571
5.78380000000000027427, 	 -11.79237356056700747331, 	 -6.09740372869017566160, 	 4.93358543809176630646
5.78490000000000037517, 	 -11.88796058925899501446, 	 -6.19530381658451556603, 	 4.89970961411856897882
5.78600000000000047606, 	 -11.98139228420763480187, 	 -6.29182113020058153552, 	 4.86584773232440959134
5.78710000000000057696, 	 -12.07263081760227230177, 	 -6.38695102708082185217, 	 4.83200266233289443818
5.78820000000000067786, 	 -12.16167732945828916513, 	 -6.48068897473268012988, 	 4.79817726723235526975
5.78929999999999989058, 	 -12.24853537825954674645, 	 -6.57303054917383366984, 	 4.76437440425864533466
5.79039999999999999147, 	 -12.33319695773905166902, 	 -6.66397143383890178114, 	 4.73059692540862464227
5.79150000000000009237, 	 -12.41566032865108404337, 	 -6.75350741898572515254, 	 4.69684715764491400591
5.79260000000000019327, 	 -12.49592408226994244558, 	 -6.84163440153765733953, 	 4.66312754215854141648
5.79370000000000029416, 	 -12.57400847883853067799, 	 -6.92834838508147488056, 	 4.62944089259151603244
5.79480000000000039506, 	 -12.64992446789983127076, 	 -7.01364547958945383499, 	 4.59578994799552731365
5.79590000000000049596, 	 -12.72364967653739142861, 	 -7.09752190047210707036, 	 4.56217766862727458488
5.79700000000000059686, 	 -12.79518121233451921626, 	 -7.17997396683339417223, 	 4.52860717921878563885
5.79810000000000069775, 	 -12.86450129178872003877, 	 -7.26099809905325344062, 	 4.49508169754226116765
5.79919999999999991047, 	 -12.93156886583485309927, 	 -7.34059081594959650374, 	 4.46160447542215621297
5.80030000000000001137, 	 -12.99639358738351901934, 	 -7.41874873179660188072, 	 4.42817875562082896579
5.80140000000000011227, 	 -13.05895955317333445578, 	 -7.49546855347859963814, 	 4.39480774323532941139
5.80250000000000021316, 	 -13.11926417903949193544, 	 -7.57074707807770952428, 	 4.36149458884124729963
5.80360000000000031406, 	 -13.17730325420641790402, 	 -7.64458119113837319958, 	 4.32824238047054699052
5.80470000000000041496, 	 -13.23306705468371369250, 	 -7.71696786556047875649, 	 4.29505414185349376766
5.80580000000000051585, 	 -13.28653139013923301093, 	 -7.78790416086465508982, 	 4.26193283484682616802
5.80690000000000061675, 	 -13.33774356687820095146, 	 -7.85738722254716304150, 	 4.22888136445803297647
5.80800000000000071765, 	 -13.38668359699419596609, 	 -7.92541428128239644479, 	 4.19590258529830517631
5.80909999999999993037, 	 -13.43333164558719694526, 	 -7.99198265188764711553, 	 4.16299930863832479133
5.81020000000000003126, 	 -13.47767274302219497883, 	 -8.05708973218718149667, 	 4.13017430950502006937
5.81130000000000013216, 	 -13.51969262751931211142, 	 -8.12073300188973057345, 	 4.09743033345495799580
5.81240000000000023306, 	 -13.55937734162478136568, 	 -8.18291002141904577627, 	 4.06477010280396466868
5.81350000000000033396, 	 -13.59675807626421750740, 	 -8.24361843089639556581, 	 4.03219632219486356917
5.81460000000000043485, 	 -13.63213719553329994483, 	 -8.30285594956426109547, 	 3.99971168345597671845
5.81570000000000053575, 	 -13.66544053629499977376, 	 -8.36062037580139261195, 	 3.96731886975048908539
5.81680000000000063665, 	 -13.69659316667278758928, 	 -8.41690958758034746268, 	 3.93502055904724823421
5.81789999999999984936, 	 -13.72556818711314008397, 	 -8.47172154282784539703, 	 3.90281942696188632880
5.81899999999999995026, 	 -13.75233553448390466656, 	 -8.52505427951835415001, 	 3.87071814902696997862
5.82010000000000005116, 	 -13.77686746764030267798, 	 -8.57690591573734728570, 	 3.83871940245384468682
5.82120000000000015206, 	 -13.79913823998302646601, 	 -8.62727464999142057422, 	 3.80682586744889217556
5.82230000000000025295, 	 -13.81913101611906746768, 	 -8.67615876170855848670, 	 3.77504022814445150402
5.82340000000000035385, 	 -13.83683575893495110165, 	 -8.72355661255837411261, 	 3.74336517320064876557
5.82450000000000045475, 	 -13.85220535993696167054, 	 -8.76946664959769606185, 	 3.71180339612953513750
5.82560000000000055564, 	 -13.86514704303629486049, 	 -8.81388740994254149541, 	 3.68035759538772477839
5.82670000000000065654, 	 -13.87565145963460011558, 	 -8.85681752570612879083, 	 3.64903047427843407746
5.82779999999999986926, 	 -13.88372124058954248937, 	 -8.89825572927971997217, 	 3.61782474069875048528
5.82889999999999997016, 	 -13.88933244010890000197, 	 -8.93820085891339566331, 	 3.58674310676313234936
5.83000000000000007105, 	 -13.89246313837237245536, 	 -8.97665186273371418224, 	 3.55578828832973492524
5.83110000000000017195, 	 -13.89309179623737833253, 	 -9.01360780120960214390, 	 3.52496300445212717989
5.83220000000000027285, 	 -13.89116742615861355148, 	 -9.04906784869521096937, 	 3.49426997677533934805
5.83330000000000037375, 	 -13.88642441286451933991, 	 -9.08303129142949217112, 	 3.46371192889194112752
5.83440000000000047464, 	 -13.87894188474099266273, 	 -9.11549752270326685277, 	 3.43329158567094250287
5.83550000000000057554, 	 -13.86874610152502818039, 	 -9.14646603766364307830, 	 3.40301167256971348607
5.83660000000000067644, 	 -13.85585197599055540252, 	 -9.17593642456992775180, 	 3.37287491493683599941
5.83769999999999988916, 	 -13.84025992746649080800, 	 -9.20390835563504161598, 	 3.34288403731178052070
5.83879999999999999005, 	 -13.82196303634442990926, 	 -9.23038157874837317252, 	 3.31304176272560590988
5.83990000000000009095, 	 -13.80095121083433262754, 	 -9.25535590509415584393, 	 3.28335081200546330393
5.84100000000000019185, 	 -13.77721185439907358727, 	 -9.27883120028418240111, 	 3.25381390308459605976
5.84210000000000029274, 	 -13.75073038046109097365, 	 -9.30080737117385325519, 	 3.22443375031875767434
5.84320000000000039364, 	 -13.72148763135629145893, 	 -9.32128435409537203782, 	 3.19521306380952330173
5.84430000000000049454, 	 -13.68946472671821013023, 	 -9.34026210359558639595, 	 3.16615454873480883791
5.84540000000000059543, 	 -13.65465648296729561650, 	 -9.35774057770237632781, 	 3.13726090468702967229
5.84650000000000069633, 	 -13.61700178137381911370, 	 -9.37371972988524682080, 	 3.10853482501964251128
5.84759999999999990905, 	 -13.57643399284376428682, 	 -9.38819949202045123116, 	 3.07997899620327908465
5.84870000000000000995, 	 -13.53292393332575827003, 	 -9.40117976971572844036, 	 3.05159609719324143029
5.84980000000000011084, 	 -13.48645037630986998067, 	 -9.41266042421373327898, 	 3.02338879881073330225
5.85090000000000021174, 	 -13.43699216395016904357, 	 -9.42264127010990470978, 	 2.99535976314077689864
5.85200000000000031264, 	 -13.38453251084249373548, 	 -9.43112206421546162005, 	 2.96751164295034897123
5.85310000000000041354, 	 -13.32905644648735332680, 	 -9.43810249419003000071, 	 2.93984708113072912283
5.85420000000000051443, 	 -13.27054874903143399933, 	 -9.44358219295963152717, 	 2.91236871016847853610
5.85530000000000061533, 	 -13.20900284361508703057, 	 -9.44756069231852890766, 	 2.88507915164973516298
5.85640000000000071623, 	 -13.14441036530325668252, 	 -9.45003746671052269335, 	 2.85798101580271524114
5.85749999999999992895, 	 -13.07673874270842162559, 	 -9.45101190195558693574, 	 2.83107690108333143186
5.85860000000000002984, 	 -13.00596179044791611545, 	 -9.45048324205240675155, 	 2.80436939380878680339
5.85970000000000013074, 	 -12.93205641548611595226, 	 -9.44845070197204961460, 	 2.77786106784377029300
5.86080000000000023164, 	 -12.85500051225438511437, 	 -9.44491334498414936149, 	 2.75155448434355243137
5.86190000000000033253, 	 -12.77477563671562421632, 	 -9.43986983098824872229, 	 2.72545219155779294695
5.86300000000000043343, 	 -12.69136912653553750374, 	 -9.43331844158122478916, 	 2.69955672469832030913
5.86410000000000053433, 	 -12.60475951878801659234, 	 -9.42525648795992232465, 	 2.67387060587349445484
5.86520000000000063523, 	 -12.51493114816598684058, 	 -9.41568221035426944354, 	 2.64839634409110180613
5.86629999999999984794, 	 -12.42187113053362423898, 	 -9.40459406474472991988, 	 2.62313643533104423611
5.86739999999999994884, 	 -12.32556922691738598985, 	 -9.39199037928383972940, 	 2.59809336266551360595
5.86850000000000004974, 	 -12.22600756432368029891, 	 -9.37786902507735575796, 	 2.57326959412267441962
5.86960000000000015064, 	 -12.12317391243045250349, 	 -9.36222788269058447952, 	 2.54866757589301151654
5.87070000000000025153, 	 -12.01705687381978293615, 	 -9.34506454339103243001, 	 2.52428973759348629358
5.87180000000000035243, 	 -11.90764513927416778927, 	 -9.32637645439824147786, 	 2.50013848794574844447
5.87290000000000045333, 	 -11.79493001453708522774, 	 -9.30616090132259543566, 	 2.47621622464711466094
5.87400000000000055422, 	 -11.67890303435481591521, 	 -9.28441496364201235281, 	 2.45252534763686780295
5.87510000000000065512, 	 -11.55955514548681506426, 	 -9.26113553891387830674, 	 2.42906825646762714044
5.87619999999999986784, 	 -11.43687813905231287492, 	 -9.23631933829632600919, 	 2.40584734712324044281
5.87729999999999996874, 	 -11.31086605016664847767, 	 -9.20996287498771337710, 	 2.38286501041553266944
5.87840000000000006963, 	 -11.18151441337244378360, 	 -9.18206245599992421091, 	 2.36012362986262314024
5.87950000000000017053, 	 -11.04881935975352114099, 	 -9.15261417090443707423, 	 2.33762557805174164827
5.88060000000000027143, 	 -10.91277804572807497152, 	 -9.12161388300247466532, 	 2.31537321960290931600
5.88170000000000037232, 	 -10.77338961144495854683, 	 -9.08905721875672689691, 	 2.29336891497737660472
5.88280000000000047322, 	 -10.63065501083626962497, 	 -9.05493955195050048701, 	 2.27161502158093142612
5.88390000000000057412, 	 -10.48457668633448491846, 	 -9.01925598655900451206, 	 2.25011389336718758969
5.88500000000000067502, 	 -10.33515823635624109045, 	 -8.98200133655343080363, 	 2.22886787838234079473
5.88609999999999988773, 	 -10.18240487040697672683, 	 -8.94317009358079495485, 	 2.20787932005498399590
5.88719999999999998863, 	 -10.02632791870715145421, 	 -8.90275637606429981474, 	 2.18715056022089004983
5.88830000000000008953, 	 -9.86693861181607445587, 	 -8.86075386929887365284, 	 2.16668393810662074372
5.88940000000000019043, 	 -9.70424317937041891469, 	 -8.81715575244426119639, 	 2.14648151562073774556
5.89050000000000029132, 	 -9.53825167819634955890, 	 -8.77195456367160808497, 	 2.12654558779335411955
5.89160000000000039222, 	 -9.36897708704596254847, 	 -8.72514212873169725526, 	 2.10687856884379609568
5.89270000000000049312, 	 -9.19643492641253779141, 	 -8.67670932557420293563, 	 2.08748264486913370774
5.89380000000000059401, 	 -9.02064286801084236345, 	 -8.62664381847574190942, 	 2.06835997845059260669
5.89490000000000069491, 	 -8.84162049103660052651, 	 -8.57495337415070935094, 	 2.04951277987388191804
5.89599999999999990763, 	 -8.65938941916765969609, 	 -8.52169420675898869888, 	 2.03094333286530570604
5.89710000000000000853, 	 -8.47397340073214522249, 	 -8.46680085072751076325, 	 2.01265399576369352630
5.89820000000000010942, 	 -8.28539818308977871197, 	 -8.41025657415081617785, 	 1.99464722482537304415
5.89930000000000021032, 	 -8.09369136212190198876, 	 -8.35206256212173414610, 	 1.97692556516244710707
5.90040000000000031122, 	 -7.89888246573422403429, 	 -8.29221193278934265436, 	 1.95949156204466312658
5.90150000000000041211, 	 -7.70100304790357625961, 	 -8.23069747566970200126, 	 1.94234779392849921109
5.90260000000000051301, 	 -7.50008662938674675047, 	 -8.16751165947935930944, 	 1.92549698566686289247
5.90370000000000061391, 	 -7.29616857081018466147, 	 -8.10264677009595502000, 	 1.90894192535429896296
5.90480000000000071481, 	 -7.08928600148456045105, 	 -8.03609498456429705016, 	 1.89268542596168454217
5.90589999999999992752, 	 -6.87947815788672922821, 	 -7.96784840358207890887, 	 1.87673031464407591429
5.90700000000000002842, 	 -6.66678604263275076391, 	 -7.89789901388646065072, 	 1.86107942991278618727
5.90810000000000012932, 	 -6.45125235249520478931, 	 -7.82623871067218157549, 	 1.84573562208085695246
5.90920000000000023022, 	 -6.23292157606394869873, 	 -7.75285936883540660602, 	 1.83070175566274162549
