x [cm], 	 0.69214285714285717077, 	 48.45000000000000284217, 	 96.20785714285715073402
0.00000000000000000000, 	 0.00000000000000000000, 	 0.00000000000000000000, 	 0.00000000000000000000
5.70020000000000059970, 	 -0.31031586745318878728, 	 1.16168167739505490133, 	 2.66105891037157693546
5.70130000000000070060, 	 -0.28905970593828822501, 	 1.16634851434353215005, 	 2.64928922122191856658
5.70239999999999991331, 	 -0.26743936576452842502, 	 1.17121597540567634610, 	 2.63767254682044960390
5.70350000000000001421, 	 -0.24547049463366796274, 	 1.17628658395768304068, 	 2.62620992393155505695
5.70460000000000011511, 	 -0.22316839759576961866, 	 1.18156281979489286016, 	 2.61490241531718003998
5.70570000000000021600, 	 -0.20054836471128301145, 	 1.18704704386604009692, 	 2.60375109377167301972
5.70680000000000031690, 	 -0.17762584450024343496, 	 1.19274142549756745346, 	 2.59275704046220978327
5.70790000000000041780, 	 -0.15441645453805624699, 	 1.19864788925152532251, 	 2.58192132635935456264
5.70900000000000051870, 	 -0.13093629852192689711, 	 1.20476805121815222499, 	 2.57124500575086312182
5.71010000000000061959, 	 -0.10720182485733277533, 	 1.21110316675285045740, 	 2.56072910993970648263
5.71119999999999983231, 	 -0.08322979242833983271, 	 1.21765409393347012745, 	 2.55037462659611069427
5.71229999999999993321, 	 -0.05903726382502874626, 	 1.22442124141132713255, 	 2.54018250336265571931
5.71340000000000003411, 	 -0.03464150890191475957, 	 1.23140452589244064896, 	 2.53015362636957785725
5.71450000000000013500, 	 -0.01005975061947824573, 	 1.23860333201266703540, 	 2.52028881451012631842
5.71560000000000023590, 	 0.01469144312755055540, 	 1.24601646693584489078, 	 2.51058881143007717185
5.71670000000000033680, 	 0.03959743935292086431, 	 1.25364212897086813037, 	 2.50105424873079673631
5.71780000000000043769, 	 0.06464766754205165944, 	 1.26147787825965296271, 	 2.49168572095698426239
5.71890000000000053859, 	 0.08983888251147138793, 	 1.26952062065650883582, 	 2.48248370653741723402
5.72000000000000063949, 	 0.11518010833526737269, 	 1.27776661311385919539, 	 2.47344859928843963104
5.72109999999999985221, 	 0.14069867977842842599, 	 1.28621149139826984609, 	 2.46458064902139417640
5.72219999999999995310, 	 0.16644722282049831397, 	 1.29485036370527928362, 	 2.45587990682196055658
5.72330000000000005400, 	 0.19251120701227461551, 	 1.30367800078874762626, 	 2.44734635292351754288
5.72440000000000015490, 	 0.21901626691754533249, 	 1.31268915259588836442, 	 2.43897982736956508987
5.72550000000000025580, 	 0.24613455910167891805, 	 1.32187904362119779123, 	 2.43077999749191153711
5.72660000000000035669, 	 0.27408983422082450199, 	 1.33124409848568192594, 	 2.42274635830923790181
5.72770000000000045759, 	 0.30316014839625787802, 	 1.34078293604952136775, 	 2.41487816043141556577
5.72880000000000055849, 	 0.33367780313802120062, 	 1.35049765665680032711, 	 2.40717445661679718683
5.72990000000000065938, 	 0.36602720532137189569, 	 1.36039542313833061726, 	 2.39963424353530996314
5.73099999999999987210, 	 0.40064075398659698690, 	 1.37049030921726222587, 	 2.39225654989768043990
5.73209999999999997300, 	 0.43799439794977684803, 	 1.38080538574791766848, 	 2.38504061818447832266
5.73320000000000007390, 	 0.47857200416344053417, 	 1.39137496639932023434, 	 2.37798546546201672314
5.73430000000000017479, 	 0.52288530479784933735, 	 1.40224693038399172984, 	 2.37109103619168459787
5.73540000000000027569, 	 0.57146179383448070244, 	 1.41348503722607099498, 	 2.36435815934961990337
5.73650000000000037659, 	 0.62485547481928604974, 	 1.42517108520382707049, 	 2.35778809897223018410
5.73760000000000047748, 	 0.68342665609523001180, 	 1.43740678524548037842, 	 2.35138299709567411000
5.73870000000000057838, 	 0.74910220195432497547, 	 1.45031528758543037938, 	 2.34514647144372601062
5.73980000000000067928, 	 0.81916363819810789071, 	 1.46404234206287342523, 	 2.33908416752859071863
5.74089999999999989200, 	 0.89604650056330048535, 	 1.47875741355670609067, 	 2.33320425923555641035
5.74199999999999999289, 	 0.98075215054780040536, 	 1.49465483265557486092, 	 2.32751793231263315320
5.74310000000000009379, 	 1.07358554376483517068, 	 1.51195019709013811493, 	 2.32203986908745774187
5.74420000000000019469, 	 1.17465422487582138444, 	 1.53087661322160495381, 	 2.31678873491500469939
5.74530000000000029559, 	 1.28433691997051346867, 	 1.55168687528674165144, 	 2.31178765368623251319
5.74640000000000039648, 	 1.40291929305934170991, 	 1.57465596040016153623, 	 2.30706463243327553059
5.74750000000000049738, 	 1.53054268086788436420, 	 1.60007993871908471561, 	 2.30265277036981474978
5.74860000000000059828, 	 1.66737232258638479188, 	 1.62827296825651646195, 	 2.29859077673052203394
5.74970000000000069917, 	 1.81353851984908032158, 	 1.65956367734669019143, 	 2.29492295341250729379
5.75079999999999991189, 	 1.96917087392955592051, 	 1.69429111923910080684, 	 2.29169918301410380224
5.75190000000000001279, 	 2.13434974707803259975, 	 1.73280069818598336795, 	 2.28897514289053027881
5.75300000000000011369, 	 2.30909032014246706765, 	 1.77544032958327768768, 	 2.28681234242157405134
5.75410000000000021458, 	 2.49336432984544220659, 	 1.82255692293534021786, 	 2.28527780652094003599
5.75520000000000031548, 	 2.68711881262567509054, 	 1.87449109005852965204, 	 2.28444388440247037053
5.75630000000000041638, 	 2.89028039634393962842, 	 1.93149484038702579092, 	 2.28438841558094862805
5.75740000000000051728, 	 3.10274735197833084754, 	 1.99385300668716203276, 	 2.28519354430429055824
5.75850000000000061817, 	 3.32440885702360056086, 	 2.06191484433034233348, 	 2.28694540078252206428
5.75960000000000071907, 	 3.55512919836137930574, 	 2.13599863921575350290, 	 2.28973304834369795202
5.76069999999999993179, 	 3.79474510306878887178, 	 2.21637108045402442258, 	 2.29365054535404766511
5.76180000000000003268, 	 4.04306856247061663368, 	 2.30327946806861749707, 	 2.29877975410418322610
5.76290000000000013358, 	 4.29988998262220523117, 	 2.39694797095339851012, 	 2.30505908909590839784
5.76400000000000023448, 	 4.56498084680277926850, 	 2.49757621490565639988, 	 2.31199468363215032696
5.76510000000000033538, 	 4.83809533310615424995, 	 2.60533790685033306289, 	 2.31970038400234113141
5.76620000000000043627, 	 5.11897361064477074422, 	 2.72037916002782420577, 	 2.32929030789054758444
5.76730000000000053717, 	 5.40734168327339048687, 	 2.84281568134281981131, 	 2.34203383817012245061
5.76840000000000063807, 	 5.70290978236068202278, 	 2.97273079345141288954, 	 2.35704583001748835258
5.76949999999999985079, 	 6.00537663137203470143, 	 3.11017799517658799502, 	 2.37402979516823320338
5.77059999999999995168, 	 6.31443337882047295295, 	 3.25518588118304741386, 	 2.39256013846677628720
5.77170000000000005258, 	 6.62976538005864224345, 	 3.40775923208087094807, 	 2.41289072257017478407
5.77280000000000015348, 	 6.95105296543629602724, 	 3.56787637537898660867, 	 2.43523532475939719077
5.77390000000000025437, 	 7.27797128345020638562, 	 3.73548582704877674132, 	 2.45970492836627263600
5.77500000000000035527, 	 7.61018993426236356470, 	 3.91050466306129029803, 	 2.48629097672919074924
5.77610000000000045617, 	 7.94737027405487861387, 	 4.09281912043958939762, 	 2.51496925074598065564
5.77720000000000055707, 	 8.28917362678805069720, 	 4.28228618119038983991, 	 2.54580546354573478141
5.77830000000000065796, 	 8.63525753911642901528, 	 4.47873499870167446346, 	 2.57887971345494593223
5.77939999999999987068, 	 8.98527526602318005189, 	 4.68196801268243412153, 	 2.61425573371489106123
5.78049999999999997158, 	 9.33887561954285949639, 	 4.89176228806100521496, 	 2.65197374515437944709
5.78160000000000007248, 	 9.69570337640995738582, 	 5.10787111015690609150, 	 2.69205939808844751937
5.78270000000000017337, 	 10.05539978031459114050, 	 5.33002571683239256828, 	 2.73452761369151442494
5.78380000000000027427, 	 10.41760289987901799691, 	 5.55793709822367176798, 	 2.77938197824616128884
5.78490000000000037517, 	 10.78194780103522276704, 	 5.79129774192319857207, 	 2.82661770767836895146
5.78600000000000047606, 	 11.14806654157922771731, 	 6.02978324285677569350, 	 2.87622463126990801641
5.78710000000000057696, 	 11.51558813599626773794, 	 6.27305384377346975100, 	 2.92818507463476773722
5.78820000000000067786, 	 11.88413820498943884729, 	 6.52075594860217133686, 	 2.98244998764891766641
5.78929999999999989058, 	 12.25333767911893900759, 	 6.77252362240080962863, 	 3.03897722027673333756
5.79039999999999999147, 	 12.62280735405482445799, 	 7.02798009149312630228, 	 3.09773474445876040306
5.79150000000000009237, 	 12.99216461743881012580, 	 7.28673920290787524578, 	 3.15869295853337872515
5.79260000000000019327, 	 13.36102443704893794063, 	 7.54840681358529863587, 	 3.22181920890431783278
5.79370000000000029416, 	 13.72899945125220355635, 	 7.81258219968364731045, 	 3.28707532330169449608
5.79480000000000039506, 	 14.09569989060304173734, 	 8.07885952696203801793, 	 3.35441704595368017650
5.79590000000000049596, 	 14.46073311614992462637, 	 8.34682934049736147131, 	 3.42379439245419270321
5.79700000000000059686, 	 14.82370444485626137521, 	 8.61608002366285141704, 	 3.49515233636162570008
5.79810000000000069775, 	 15.18422015766464916453, 	 8.88619920301517041139, 	 3.56843153464240403494
5.79919999999999991047, 	 15.54188387670059157131, 	 9.15677505623433951598, 	 3.64356897200621920874
5.80030000000000001137, 	 15.89629941595661399845, 	 9.42739750236107987291, 	 3.72049849272155563895
5.80140000000000011227, 	 16.24707154696280042572, 	 9.69765934035502219501, 	 3.79915122781065717206
5.80250000000000021316, 	 16.59380617482447917155, 	 9.96715733937208625548, 	 3.87945593877868022403
5.80360000000000031406, 	 16.93611187144880148026, 	 10.23549344734033006432, 	 3.96133929994769973248
5.80470000000000041496, 	 17.27360079703924711225, 	 10.50227661271388335251, 	 4.04472630225867924025
5.80580000000000051585, 	 17.60588918620981147001, 	 10.76712695282443199574, 	 4.12954072534655569626
5.80690000000000061675, 	 17.93259802911179789930, 	 11.02967293312541663397, 	 4.21570437364159555926
5.80800000000000071765, 	 18.25335392590272576285, 	 11.28952888068076632067, 	 4.30313704527019069701
5.80909999999999993037, 	 18.56778998387533263781, 	 11.54633011454626867476, 	 4.39175776031713116510
5.81020000000000003126, 	 18.87554668797384138657, 	 11.79972428536198059135, 	 4.48148559491436682123
5.81130000000000013216, 	 19.17627277754963088796, 	 12.04936894983558204331, 	 4.57223932319609271957
5.81240000000000023306, 	 19.46962614045907002946, 	 12.29493244764980630634, 	 4.66393708855231281518
5.81350000000000033396, 	 19.75527471179140803770, 	 12.53609447087176675950, 	 4.75649612634231910846
5.81460000000000043485, 	 20.03289740668531138112, 	 12.77254625669407417377, 	 4.84983236623108737717
5.81570000000000053575, 	 20.30218501492254645768, 	 13.00399091677217455754, 	 4.94386102317707898379
5.81680000000000063665, 	 20.56284054430864571827, 	 13.23014379427504216835, 	 5.03849681091738332839
5.81789999999999984936, 	 20.81458146859918656446, 	 13.45073287955346863498, 	 5.13365337014509304225
5.81899999999999995026, 	 21.05713921815975808727, 	 13.66549916419703158965, 	 5.22924497007334831977
5.82010000000000005116, 	 21.29025880011217353172, 	 13.87419686291861076199, 	 5.32518668144220974625
5.82120000000000015206, 	 21.51369971327393670890, 	 14.07659361871961323232, 	 5.42139429491198221456
5.82230000000000025295, 	 21.72723725634927305350, 	 14.27247070327418398961, 	 5.51778426363242946451
5.82340000000000035385, 	 21.93066360507641832100, 	 14.46162320085661967539, 	 5.61427369625584216095
5.82450000000000045475, 	 22.12378850231547744443, 	 14.64386016785324251543, 	 5.71078039231727174752
5.82560000000000055564, 	 22.30643962987534223430, 	 14.81900476655583176466, 	 5.80722290759591697196
5.82670000000000065654, 	 22.47846280279270558822, 	 14.98689437580087435720, 	 5.90352063884931776983
5.82779999999999986926, 	 22.63972203439351105203, 	 15.14738068146198024522, 	 5.99959392007177605421
5.82889999999999997016, 	 22.79009949223405939733, 	 15.30032974824223757082, 	 6.09536412488871981452
5.83000000000000007105, 	 22.92949548530728165474, 	 15.44562207225476058170, 	 6.19075377161138895588
5.83110000000000017195, 	 23.05782850671688422040, 	 15.58315261232959159088, 	 6.28568662887055307209
5.83220000000000027285, 	 23.17503538114085870347, 	 15.71283079720154951531, 	 6.38008782070215918480
5.83330000000000037375, 	 23.28107004093528331623, 	 15.83458050598385113972, 	 6.47388393054838040541
5.83440000000000047464, 	 23.37590450263697405830, 	 15.94834002057045196921, 	 6.56700310394180331031
5.83550000000000057554, 	 23.45952931704742283614, 	 16.05406195079497422284, 	 6.65937519654576082218
5.83660000000000067644, 	 23.53195233738602709650, 	 16.15171314243432476587, 	 6.75093209712549580104
5.83769999999999988916, 	 23.59319767657817124018, 	 16.24127455487520421684, 	 6.84160720652497200689
5.83879999999999999005, 	 23.64330572392530527281, 	 16.32274108663501266392, 	 6.93133900932426438857
5.83990000000000009095, 	 23.68233310779283229408, 	 16.39612137232320421276, 	 7.02006725299048017774
5.84100000000000019185, 	 23.71035582528970664384, 	 16.46143758248427957369, 	 7.10772448779830057219
5.84210000000000029274, 	 23.72746782439701718204, 	 16.51872530104688152619, 	 7.19424469903987695574
5.84320000000000039364, 	 23.73377688732608703504, 	 16.56803362216045627520, 	 7.27956825506139981741
5.84430000000000049454, 	 23.72940336979275244289, 	 16.60942183783696179944, 	 7.36364173796460619315
5.84540000000000059543, 	 23.71447980653127629580, 	 16.64296155562985646270, 	 7.44641643626675708845
5.84650000000000069633, 	 23.68915105901566420243, 	 16.66873830355506314049, 	 7.52784697330866858778
5.84759999999999990905, 	 23.65357450548160045400, 	 16.68684858385260127989, 	 7.60789065729133717753
5.84870000000000000995, 	 23.60791979018457098505, 	 16.69740028645289697806, 	 7.68650691962249332789
5.84980000000000011084, 	 23.55236829765749817511, 	 16.70051204213248041697, 	 7.76365684331568850496
5.85090000000000021174, 	 23.48711244400576347857, 	 16.69631276800515706782, 	 7.83930326824520218310
5.85200000000000031264, 	 23.41235493388801813808, 	 16.68494124709402726126, 	 7.91341114194376427093
5.85310000000000041354, 	 23.32830803421375520657, 	 16.66654565293463363673, 	 7.98594780620627542334
5.85420000000000051443, 	 23.23519286428651753340, 	 16.64128303580174517151, 	 8.05688318643406553576
5.85530000000000061533, 	 23.13321936127168498842, 	 16.60931877869143136195, 	 8.12618990211818470470
5.85640000000000071623, 	 23.02261574712990466196, 	 16.57082531807844105742, 	 8.19384332044364072090
5.85749999999999992895, 	 22.90359652748384178267, 	 16.52597560746488269956, 	 8.25982157029097052714
5.85860000000000002984, 	 22.77635600494008372152, 	 16.47493750169233450720, 	 8.32410552825647442887
5.85970000000000013074, 	 22.64112190133236168776, 	 16.41795318994683583469, 	 8.38667877418924057054
5.86080000000000023164, 	 22.49819203237147036134, 	 16.35524694660297484461, 	 8.44752748167427292003
5.86190000000000033253, 	 22.34792422986685878072, 	 16.28696451597294014846, 	 8.50664023007134950660
5.86300000000000043343, 	 22.19065664327093756469, 	 16.21331834207107647217, 	 8.56400784682243632062
5.86410000000000053433, 	 22.02669270693645842130, 	 16.13451842797873680979, 	 8.61962341996394343369
5.86520000000000063523, 	 21.85631286995164046516, 	 16.05077758318872582777, 	 8.67348247162230912011
5.86629999999999984794, 	 21.67978483407484091572, 	 15.96231142128366897737, 	 8.72558314979158211599
5.86739999999999994884, 	 21.49737127707577499791, 	 15.86933806579472516773, 	 8.77592630321674072036
5.86850000000000004974, 	 21.30933409496033448249, 	 15.77207786316922799585, 	 8.82451540081598295728
5.86960000000000015064, 	 21.11593316329952685351, 	 15.67075279755989036801, 	 8.87135633208727192311
5.87070000000000025153, 	 20.91743480057994375443, 	 15.56558579522986462962, 	 8.91645715540089689455
5.87180000000000035243, 	 20.71417626403276202041, 	 15.45679997997663157605, 	 8.95982789526255984924
5.87290000000000045333, 	 20.50645206083096638849, 	 15.34461794111113341899, 	 9.00148033673610825645
5.87400000000000055422, 	 20.29451913163613951951, 	 15.22926105382511785535, 	 9.04142776727129593439
5.87510000000000065512, 	 20.07862013957454294655, 	 15.11094894694047674477, 	 9.07968493635607387660
5.87619999999999986784, 	 19.85899470688191570389, 	 14.98989909778551599118, 	 9.11626828254286536435
5.87729999999999996874, 	 19.63588323074306174476, 	 14.86632637566213333002, 	 9.15119583393267177485
5.87840000000000006963, 	 19.40952722925058537840, 	 14.74044249861051092410, 	 9.18448688409701574642
5.87950000000000017053, 	 19.18016834994247332702, 	 14.61245546635463021801, 	 9.21616162876593669750
5.88060000000000027143, 	 18.94804652037363723593, 	 14.48256897109880014796, 	 9.24624102022161586945
5.88170000000000037232, 	 18.71339814918408350763, 	 14.35098189113920952309, 	 9.27474712889213748213
5.88280000000000047322, 	 18.47645922363811266109, 	 14.21788785579290959049, 	 9.30170420906367745317
5.88390000000000057412, 	 18.23746080883443809739, 	 14.08347486767646827843, 	 9.32713967139637745163
5.88500000000000067502, 	 17.99662833736801914597, 	 13.94792495280192667906, 	 9.35107927276284556228
5.88609999999999988773, 	 17.75418056096400576394, 	 13.81141388855847829120, 	 9.37354770032171735750
5.88719999999999998863, 	 17.51033264156769675424, 	 13.67411106845303869761, 	 9.39456970010290604023
5.88830000000000008953, 	 17.26529331583152071516, 	 13.53617941354698039902, 	 9.41417034449529133155
5.88940000000000019043, 	 17.01926477294285788844, 	 13.39777525556472070889, 	 9.43237670188842969310
5.89050000000000029132, 	 16.77244568718263195706, 	 13.25904818805806328896, 	 9.44921720343127269359
5.89160000000000039222, 	 16.52512358193674302242, 	 13.12014095475769082100, 	 9.46472042872320251661
5.89270000000000049312, 	 16.27750130306703013616, 	 12.98118937783304716049, 	 9.47891583298048168160
5.89380000000000059401, 	 16.02971904798867086583, 	 12.84232238095510858500, 	 9.49183261584652804288
5.89490000000000069491, 	 15.78191278107800066266, 	 12.70366215152576572223, 	 9.50350114364496612041
5.89599999999999990763, 	 15.53422018922707437127, 	 12.56532433657682190642, 	 9.51395111764374590280
5.89710000000000000853, 	 15.28677918225057652535, 	 12.42741807628430805721, 	 9.52320800302033987350
5.89820000000000010942, 	 15.03972561265624996452, 	 12.29004586971978874033, 	 9.53129914150372847814
5.89930000000000021032, 	 14.79319445156771450911, 	 12.15330336944753852890, 	 9.53825223455296544728
5.90040000000000031122, 	 14.54731545573620898892, 	 12.01728140241107745112, 	 9.54409421984633787872
5.90150000000000041211, 	 14.30221137424975452745, 	 11.88206109420654144060, 	 9.54885115135902928785
5.90260000000000051301, 	 14.05799763749412534253, 	 11.74771524875996320247, 	 9.55254843175288215207
5.90370000000000061391, 	 13.81478425165818535447, 	 11.61431113725137365122, 	 9.55521106800344099952
5.90480000000000071481, 	 13.57267502450972962436, 	 11.48190905368655023722, 	 9.55686382723408200945
5.90589999999999992752, 	 13.33176698649648095341, 	 11.35056258504401505149, 	 9.55753119221821556550
5.90700000000000002842, 	 13.09215032961807168022, 	 11.22031885924561578349, 	 9.55723720094544759718
5.90810000000000012932, 	 12.85390844685207767384, 	 11.09121878068134847695, 	 9.55600530667792469330
5.90920000000000023022, 	 12.61711796819795949887, 	 10.96329725834110924154, 	 9.55385829456229629386
5.91030000000000033111, 	 12.38184887836488279333, 	 10.83658343339353358203, 	 9.55081824008175317431
5.91140000000000043201, 	 12.14816466897410940362, 	 10.71110090636329026381, 	 9.54690649252893663856
