x [cm], 	 0.25592592592592589007, 	 34.54999999999999715783, 	 68.84407407407405798949
0.00000000000000000000, 	 0.00000000000000000000, 	 0.00000000000000000000, 	 0.00000000000000000000
5.70020000000000059970, 	 2.30104347106694095970, 	 9.28828431899033013508, 	 18.19301397473552484030
5.70130000000000070060, 	 2.24594883788011623338, 	 9.23468909167556972761, 	 18.15008586644452748260
5.70239999999999991331, 	 2.19539041641532728377, 	 9.18337916954495980804, 	 18.10722964658859623910
5.70350000000000001421, 	 2.14952873880283590324, 	 9.13436024130618662298, 	 18.06445311888032989600
5.70460000000000011511, 	 2.10945111772080462487, 	 9.08763862059969973473, 	 18.02176431146835255959
5.70570000000000021600, 	 2.07849524622033454690, 	 9.04322117669970459986, 	 17.97917148730022418590
5.70680000000000031690, 	 2.06296783047688947477, 	 9.00111525714702764844, 	 17.93668314714823708300
5.70790000000000041780, 	 2.07135331218495455374, 	 8.96132860417672105768, 	 17.89430803322356666740
5.70900000000000051870, 	 2.11235611013607327280, 	 8.92386927642503202662, 	 17.85205512966895469162
5.71010000000000061959, 	 2.19383218734351936874, 	 8.88874563416150209605, 	 17.80993366120296528265
5.71119999999999983231, 	 2.32784269016219713677, 	 8.85596658317569662699, 	 17.76795308925228056296
5.71229999999999993321, 	 2.49527925351105972496, 	 8.82554253029091029248, 	 17.72612310634325538672
5.71340000000000003411, 	 2.68801807459351671525, 	 8.79748781401780099998, 	 17.68445362849438851072
5.71450000000000013500, 	 2.91433700446771926096, 	 8.77182556007577218793, 	 17.64295478570987185662
5.71560000000000023590, 	 3.16617691085171060195, 	 8.74859580334808839552, 	 17.60163691072528635573
5.71670000000000033680, 	 3.43821591863764508545, 	 8.72786727287170904788, 	 17.56051052598206752009
5.71780000000000043769, 	 3.72696347409523731642, 	 8.70975234959738919827, 	 17.51958632871349408333
5.71890000000000053859, 	 4.02990634489743815294, 	 8.69442415244916944062, 	 17.47887517495555087521
5.72000000000000063949, 	 4.34587185827485367184, 	 8.68213297884340562405, 	 17.43838806410959563209
5.72109999999999985221, 	 4.67455800655511399810, 	 8.67321437751210133627, 	 17.39813612641272655424
5.72219999999999995310, 	 5.01590562526733041437, 	 8.66809798023243871512, 	 17.35813061801281875773
5.72330000000000005400, 	 5.36976142351989604862, 	 8.66730691779836170952, 	 17.31838293196853584277
5.72440000000000015490, 	 5.73569479111764657375, 	 8.67145168899189400236, 	 17.27890463794837927480
5.72550000000000025580, 	 6.11313595463711045852, 	 8.68121834363961752956, 	 17.23970756850709662444
5.72660000000000035669, 	 6.50153712265952243854, 	 8.69735223916014277279, 	 17.20080397501583391318
5.72770000000000045759, 	 6.90046170874471265222, 	 8.72063894633373060117, 	 17.16220678220749462639
5.72880000000000055849, 	 7.30955209131823657742, 	 8.75188394833566185582, 	 17.12393000778427065711
5.72990000000000065938, 	 7.72851283170549852031, 	 8.79189260045527554155, 	 17.08598938806333578100
5.73099999999999987210, 	 8.15707777978542303288, 	 8.84145149344662861779, 	 17.04840273230624347889
5.73209999999999997300, 	 8.59497153849330963737, 	 8.90131199508873649506, 	 17.01119060922908943212
5.73320000000000007390, 	 9.04187625973584374606, 	 8.97217640964710483331, 	 16.97437736948551290084
5.73430000000000017479, 	 9.49741149583444510540, 	 9.05468693243757627442, 	 16.93799219026513469544
5.73540000000000027569, 	 9.96113128355726296093, 	 9.14941739090726002814, 	 16.90207009677613925192
5.73650000000000037659, 	 10.43253799427003514211, 	 9.25686763537057544227, 	 16.86665302651186948424
5.73760000000000047748, 	 10.91110732342707478892, 	 9.37746035841716540915, 	 16.83179054598324242420
5.73870000000000057838, 	 11.39630454102087142587, 	 9.51154006513310967819, 	 16.79754068005025757770
5.73980000000000067928, 	 11.88760967786981659344, 	 9.65937387867386476614, 	 16.76397058952980145818
5.74089999999999989200, 	 12.38454071921424493041, 	 9.82115384907288913041, 	 16.73115697145879465779
5.74199999999999999289, 	 12.88666143657179219417, 	 9.99700042554469270328, 	 16.69918620839464651340
5.74310000000000009379, 	 13.39357728192337226858, 	 10.18696676549845925308, 	 16.66815400837411687007
5.74420000000000019469, 	 13.90492660734116547872, 	 10.39104358399444016925, 	 16.63816482316157419064
5.74530000000000029559, 	 14.42037872684177202132, 	 10.60916430277124611337, 	 16.60933081845034209323
5.74640000000000039648, 	 14.93962171512524861328, 	 10.84121026275200527778, 	 16.58177169644396897752
5.74750000000000049738, 	 15.46235742363234599850, 	 11.08701558929468866666, 	 16.55561338550639760570
5.74860000000000059828, 	 15.98830049032969924383, 	 11.34637199719598754655, 	 16.53098605418834310399
5.74970000000000069917, 	 16.51717926798724533910, 	 11.61903182565095526968, 	 16.50802308052271527572
5.75079999999999991189, 	 17.04873702422154124747, 	 11.90451231499112871859, 	 16.48685964641202517100
5.75190000000000001279, 	 17.58273232475302805256, 	 12.20257713052079395766, 	 16.46763041445015574027
5.75300000000000011369, 	 18.11893889804149182510, 	 12.51293207855555067454, 	 16.45046801563028893156
5.75410000000000021458, 	 18.65714472272832580302, 	 12.83532071617199044056, 	 16.43550204485760346529
5.75520000000000031548, 	 19.19715083191876558999, 	 13.16937036889794043759, 	 16.42285774566004263875
5.75630000000000041638, 	 19.73877262161293089093, 	 13.51468686943521824162, 	 16.41265452872277919028
5.75740000000000051728, 	 20.28183739505572447115, 	 13.87086252466284719276, 	 16.40500438836809138365
5.75850000000000061817, 	 20.82618442362473487606, 	 14.23747652484229497816, 	 16.40001068507914894212
5.75960000000000071907, 	 21.37166450536770057056, 	 14.61409832986456791559, 	 16.39776894153046882252
5.76069999999999993179, 	 21.91814002223898327770, 	 15.00028900807571830001, 	 16.39836467032590761050
5.76180000000000003268, 	 22.46548525095213122427, 	 15.39560299046294566949, 	 16.40187235266964904667
5.76290000000000013358, 	 23.01358653899550787969, 	 15.79958949686910330001, 	 16.40836902538653419015
5.76400000000000023448, 	 23.56234217768927408088, 	 16.21179379023343258837, 	 16.41786255778096759173
5.76510000000000033538, 	 24.11166197461811933067, 	 16.63175828018279389653, 	 16.43036464068712732001
5.76620000000000043627, 	 24.66146659934372564749, 	 17.05902347173530841928, 	 16.44592555226611452213
5.76730000000000053717, 	 25.21168679024733094707, 	 17.49312878374143664928, 	 16.46458853525790644312
5.76840000000000063807, 	 25.76226249830739334357, 	 17.93361325503309799956, 	 16.48509226630411106385
5.76949999999999985079, 	 26.31314197876238480944, 	 18.38001615582919612280, 	 16.50506998213686671306
5.77059999999999995168, 	 26.86428067961121612939, 	 18.83187752591436847638, 	 16.52698269761636851172
5.77170000000000005258, 	 27.41564129606318900301, 	 19.28873865255998509838, 	 16.55549248380017246518
5.77280000000000015348, 	 27.96719222387149272890, 	 19.75014250082535838260, 	 16.59185320097125782013
5.77390000000000025437, 	 28.51890693904338647258, 	 20.21563410179900088792, 	 16.63237730328463470642
5.77500000000000035527, 	 29.07076333417093039202, 	 20.68476087110953542947, 	 16.67594222038980689149
5.77610000000000045617, 	 29.62274283835950683397, 	 21.15707281019096797081, 	 16.72080158096367341614
5.77720000000000055707, 	 30.17482962745656394077, 	 21.63212263363825726969, 	 16.76788803958282159101
5.77830000000000065796, 	 30.72700995688398606376, 	 22.10946601807031797193, 	 16.81768897632565540334
5.77939999999999987068, 	 31.27927130356707152714, 	 22.58866217540644427686, 	 16.87045339072727401231
5.78049999999999997158, 	 31.83160211646751491799, 	 23.06927477135720394585, 	 16.92596616569598921842
5.78160000000000007248, 	 32.38399144811849339476, 	 23.55087302104867319485, 	 16.98381389998466417524
5.78270000000000017337, 	 32.93642774679794626991, 	 24.03303273816120722017, 	 17.04389377538608485452
5.78380000000000027427, 	 33.48889718280830152253, 	 24.51533719641173192372, 	 17.10629520010764537119
5.78490000000000037517, 	 34.04138175433910618040, 	 24.99737778925356934678, 	 17.17105617591232658015
5.78600000000000047606, 	 34.59385762434393285503, 	 25.47875455268867028735, 	 17.23815280581556663719
5.78710000000000057696, 	 35.14629215812639984051, 	 25.95907662717498709526, 	 17.30753186084230321740
5.78820000000000067786, 	 35.69863964482715346094, 	 26.43796271433304667653, 	 17.37911628351150383764
5.78929999999999989058, 	 36.25083897910126751185, 	 26.91504437800006854786, 	 17.45281657337266878471
5.79039999999999999147, 	 36.80282129756903231055, 	 27.38995533012435146247, 	 17.52851321587667499102
5.79150000000000009237, 	 37.35451538307102481440, 	 27.86234573869835173809, 	 17.60603615251943310227
5.79260000000000019327, 	 37.90584720234794957605, 	 28.33187750405366855944, 	 17.68527836715808732038
5.79370000000000029416, 	 38.45673663761410665529, 	 28.79822462800856897047, 	 17.76617748873436397616
5.79480000000000039506, 	 39.00709343446206389672, 	 29.26107378580118023592, 	 17.84868571564383188388
5.79590000000000049596, 	 39.55681505446303702911, 	 29.72012489025982873159, 	 17.93274821423990772473
5.79700000000000059686, 	 40.10578454756553412608, 	 30.17509162386322074667, 	 18.01830273900431222955
5.79810000000000069775, 	 40.65386951227150547084, 	 30.62570191737622593564, 	 18.10528088753935804789
5.79919999999999991047, 	 41.20092187563789565274, 	 31.07169835789098755185, 	 18.19361094025048330991
5.80030000000000001137, 	 41.74677789124601190451, 	 31.51283851529488089227, 	 18.28322103723520797303
5.80140000000000011227, 	 42.29125817947470977742, 	 31.94889518379815029903, 	 18.37404080792937222100
5.80250000000000021316, 	 42.83416774100439283757, 	 32.37965654080277033700, 	 18.46600225385539317813
5.80360000000000031406, 	 43.37529592753402596372, 	 32.80492622686593051640, 	 18.55904021387276259247
5.80470000000000041496, 	 43.91441639727150203498, 	 33.22452334889963765363, 	 18.65309258195609132258
5.80580000000000051585, 	 44.45128711546391997445, 	 33.63828240657344537112, 	 18.74810036138885038781
5.80690000000000061675, 	 44.98565046882357165714, 	 34.04605314049423725464, 	 18.84400758316189694597
5.80800000000000071765, 	 45.51723354226347595386, 	 34.44770030040301378449, 	 18.94076138980161516656
5.80909999999999993037, 	 46.04574856816314110119, 	 34.84310333220204825011, 	 19.03831198396730428612
5.81020000000000003126, 	 46.57089352239137269862, 	 35.23215598379599811096, 	 19.13661245547267952816
5.81130000000000013216, 	 47.09235283900984114780, 	 35.61476583117202920903, 	 19.23561871275788348612
5.81240000000000023306, 	 47.60979943485777710066, 	 35.99085372762981904771, 	 19.33528948676249470395
5.81350000000000033396, 	 48.12289538254390919292, 	 36.36035318045498598849, 	 19.43558625546929263805
5.81460000000000043485, 	 48.63128968845146715694, 	 36.72320966049510815310, 	 19.53647317934815674789
5.81570000000000053575, 	 49.13461865851074605871, 	 37.07937985101428779444, 	 19.63791713975209773935
5.81680000000000063665, 	 49.63250978041968863863, 	 37.42883084293129769549, 	 19.73988734858686910911
5.81789999999999984936, 	 50.12458529333945733697, 	 37.77153928416851869088, 	 19.84235527435851764722
5.81899999999999995026, 	 50.61046092888048519853, 	 38.10749049139825217480, 	 19.94529466279559315467
5.82010000000000005116, 	 51.08974409134928862386, 	 38.43667753281891208417, 	 20.04868144891938541718
5.82120000000000015206, 	 51.56203543835709268706, 	 38.75910029046893612303, 	 20.15249362867639604247
5.82230000000000025295, 	 52.02693099038134505463, 	 39.07476451014674267981, 	 20.25671111455801565171
5.82340000000000035385, 	 52.48402307682125922383, 	 39.38368084670611324327, 	 20.36131558494629700817
5.82450000000000045475, 	 52.93290241278678109893, 	 39.68586391248611278115, 	 20.46629033070640701908
5.82560000000000055564, 	 53.37316292609867218744, 	 39.98133133659206350785, 	 20.57162009993825790843
5.82670000000000065654, 	 53.80440284051929467068, 	 40.27010284233076475857, 	 20.67729094087439634109
5.82779999999999986926, 	 54.22622418989185177907, 	 40.55219934935151826494, 	 20.78329004274953817344
5.82889999999999997016, 	 54.63823305392170226469, 	 40.82764210620809564034, 	 20.88960557460752909265
5.83000000000000007105, 	 55.04004061570645944812, 	 41.09645185836465941520, 	 20.99622652223001040284
5.83110000000000017195, 	 55.43126466669427543366, 	 41.35864805632708396388, 	 21.10314252357265729643
5.83220000000000027285, 	 55.81153084999169777802, 	 41.61424810867768542266, 	 21.21034390058508023458
5.83330000000000037375, 	 56.18047417557874467775, 	 41.86326668508385040468, 	 21.31782126725719805904
5.83440000000000047464, 	 56.53774043559931783420, 	 42.10571507441849092857, 	 21.42556478842853451283
5.83550000000000057554, 	 56.88298738040295177143, 	 42.34160060272667180925, 	 21.53356493324544373991
5.83660000000000067644, 	 57.21588570588149025298, 	 42.57092611493970935044, 	 21.64181214039799527882
5.83769999999999988916, 	 57.53611992376579564734, 	 42.79368952321229357949, 	 21.75029655382490290094
5.83879999999999999005, 	 57.84338918039609467314, 	 43.00988342380915696594, 	 21.85900782806858444474
5.83990000000000009095, 	 58.13740806815491168891, 	 43.21949478364111740802, 	 21.96793499082600931160
5.84100000000000019185, 	 58.41790744108972432969, 	 43.42250469682119273784, 	 22.07706627600704152314
5.84210000000000029274, 	 58.68463517344557800470, 	 43.61888821102297697507, 	 22.18638893816513402157
5.84320000000000039364, 	 58.93732824860525454369, 	 43.80861422295967599894, 	 22.29588915589540221163
5.84430000000000049454, 	 59.17576816148046248145, 	 43.99164544189599013180, 	 22.40555191777465893210
5.84540000000000059543, 	 59.39976890797773734221, 	 44.16793841967913181179, 	 22.51536091128440020270
5.84650000000000069633, 	 59.60916006930087007731, 	 44.33744364537198379139, 	 22.62529841594547619366
5.84759999999999990905, 	 59.80378810152298285630, 	 44.50010570249693842015, 	 22.73534520275701709124
5.84870000000000000995, 	 59.98351767878416751500, 	 44.65586348683727635489, 	 22.84548044229852692411
5.84980000000000011084, 	 60.14823249852169340102, 	 44.80465048113257608975, 	 22.95568162320498828421
5.85090000000000021174, 	 60.29783569171648593965, 	 44.94639508106508429819, 	 23.06592448207053180909
5.85200000000000031264, 	 60.43224997384071883744, 	 45.08102096736234187802, 	 23.17618294538870671317
5.85310000000000041354, 	 60.55141766771233591271, 	 45.20844752082240347590, 	 23.28642908387545062965
5.85420000000000051443, 	 60.65530051951763823581, 	 45.32859027846262733874, 	 23.39663308197010138656
5.85530000000000061533, 	 60.74387966366097657556, 	 45.44136142909946585178, 	 23.50676324294182606423
5.85640000000000071623, 	 60.81715378154501649988, 	 45.54667034591245311503, 	 23.61678593104187484641
5.85749999999999992895, 	 60.87513852833936311981, 	 45.64442415254001161884, 	 23.72666557494016004171
5.85860000000000002984, 	 60.91786766552388598939, 	 45.73452831838869769854, 	 23.83636471122607858319
5.85970000000000013074, 	 60.94539340817419059704, 	 45.81688727824472096017, 	 23.94584403876156741831
5.86080000000000023164, 	 60.95778580634780041692, 	 45.89140507092911036580, 	 24.05506244798712245370
5.86190000000000033253, 	 60.95513164742794742779, 	 45.95798613531812293331, 	 24.16397706533758693581
5.86300000000000043343, 	 60.93753330508238974517, 	 46.01653548619095346339, 	 24.27254337716134102720
5.86410000000000053433, 	 60.90510761599657030274, 	 46.06695960713830118038, 	 24.38071539864704462275
5.86520000000000063523, 	 60.85798495077553127430, 	 46.10916749039462558812, 	 24.48844557577462310860
5.86629999999999984794, 	 60.79630838170639606233, 	 46.14307102945102201375, 	 24.59568474708501994996
5.86739999999999994884, 	 60.72023286440462896962, 	 46.16858566015075382438, 	 24.70238232247688614507
5.86850000000000004974, 	 60.62992441525677378422, 	 46.18563098583158677002, 	 24.80848647486007862994
5.86960000000000015064, 	 60.52555935862756797405, 	 46.19413138465439772062, 	 24.91394430645926760803
5.87070000000000025153, 	 60.40732360812286572127, 	 46.19401659598878495672, 	 25.01870199695736829426
5.87180000000000035243, 	 60.27540752878652341451, 	 46.18522228320155420533, 	 25.12270494474364213033
5.87290000000000045333, 	 60.12998019312041009243, 	 46.16769056970507278947, 	 25.22589790873626114376
5.87400000000000055422, 	 59.97121802702937287677, 	 46.14137011189034609515, 	 25.32822515404748031642
5.87510000000000065512, 	 59.79916831614576011589, 	 46.10620739329433348530, 	 25.42963060221559956631
5.87619999999999986784, 	 59.61407724856227474675, 	 46.06215243562297700919, 	 25.53005798553844130083
5.87729999999999996874, 	 59.41633794246795474692, 	 46.00926626615846970481, 	 25.62945100455713998144
5.87840000000000006963, 	 59.20629667404548257537, 	 45.94745573186003184674, 	 25.72775348755736857242
5.87950000000000017053, 	 58.98423442429964325129, 	 45.87672174671838121185, 	 25.82490955084121608820
5.88060000000000027143, 	 58.75039145961007136520, 	 45.79706361172181772190, 	 25.92086375800050035423
5.88170000000000037232, 	 58.50496580233990329134, 	 45.70849022060056654482, 	 26.01556127467948797971
5.88280000000000047322, 	 58.24824101566927225804, 	 45.61102005507505907644, 	 26.10894855320574947655
5.88390000000000057412, 	 57.98053942249976699941, 	 45.50468127084207026201, 	 26.20097423052418506018
5.88500000000000067502, 	 57.70207566237895946415, 	 45.38951178983922574162, 	 26.29158372326538639641
5.88609999999999988773, 	 57.41302691995286977544, 	 45.26555938459932804108, 	 26.38072248880245851410
5.88719999999999998863, 	 57.11356662421818697339, 	 45.13288175962178172540, 	 26.46833925676024534823
5.88830000000000008953, 	 56.80387392198035456659, 	 44.99154662306749230538, 	 26.55438597540137024566
5.88940000000000019043, 	 56.48415233054128492540, 	 44.84163173395143786593, 	 26.63881699923262047491
5.89050000000000029132, 	 56.15480776270172214026, 	 44.68322491362228277012, 	 26.72158854721844889468
5.89160000000000039222, 	 55.81603730353824488475, 	 44.51642401249879554825, 	 26.80265854327995711515
5.89270000000000049312, 	 55.46795581965384513978, 	 44.34133682085483485480, 	 26.88198668724906426064
5.89380000000000059401, 	 55.11069711897570755355, 	 44.15808091222833553502, 	 26.95953460540189183803
5.89490000000000069491, 	 54.74441372755514834125, 	 43.96678341183348237564, 	 27.03526599134996288853
5.89599999999999990763, 	 54.36926654688522830838, 	 43.76758069242426074652, 	 27.10914670178253516042
5.89710000000000000853, 	 53.98541595020002858973, 	 43.56061801210032058407, 	 27.18114480533485632918
5.89820000000000010942, 	 53.59301770752225735350, 	 43.34604911125676807160, 	 27.25123059897964949982
5.89930000000000021032, 	 53.19222337490356267153, 	 43.12403577737642734746, 	 27.31937659949892704958
5.90040000000000031122, 	 52.78318283529299037582, 	 42.89474737681658211841, 	 27.38555754269582465099
5.90150000000000041211, 	 52.36604838656164417898, 	 42.65836034965440859423, 	 27.44975039328967625352
5.90260000000000051301, 	 51.94097692002300448166, 	 42.41505766624714368618, 	 27.51193429382674082717
5.90370000000000061391, 	 51.50812560271882745155, 	 42.16502824846067198905, 	 27.57209055960340293723
5.90480000000000071481, 	 51.06765275057401254344, 	 41.90846636183555062871, 	 27.63020282452351494840
5.90589999999999992752, 	 50.61970418007972938312, 	 41.64557098674621471446, 	 27.68625707394183876886
5.90700000000000002842, 	 50.16441409032026399473, 	 41.37654517772578799395, 	 27.74024140116893022423
5.90810000000000012932, 	 49.70190472480791754606, 	 41.10159542125365561560, 	 27.79214589711386196313
5.90920000000000023022, 	 49.23229768752079849037, 	 40.82093100187081091690, 	 27.84196274345557853280
