x [cm], 	 0.40000000000000002220, 	 2.00000000000000000000, 	 3.60000000000000008882
0.00000000000000000000, 	 0.00000000000000000000, 	 0.00000000000000000000, 	 0.00000000000000000000
5.70020000000000059970, 	 3.61568306060301525306, 	 5.32769682815625067462, 	 7.06753954022433283910
5.70130000000000070060, 	 4.72507889179380047295, 	 5.89991922137830826500, 	 7.36944822892939210845
5.70239999999999991331, 	 7.22499574981992509493, 	 7.81893496715213576209, 	 8.80385571013467327361
5.70350000000000001421, 	 10.83441168418654498851, 	 10.95686434494947114615, 	 11.44199240678157281081
5.70460000000000011511, 	 15.21541417990846767339, 	 14.98664234878703460652, 	 14.97813826105682188938
5.70570000000000021600, 	 20.06374182377798831567, 	 19.59184573209645563452, 	 19.12023596184967999534
5.70680000000000031690, 	 25.02397883906548159416, 	 24.32409979519761122901, 	 23.45802888312637790591
5.70790000000000041780, 	 29.79880036200598425467, 	 28.89836503321764382690, 	 27.75842789880283589810
5.70900000000000051870, 	 34.27721694381337158575, 	 33.21170538212214040641, 	 31.89619537571776319851
5.71010000000000061959, 	 38.51174191714118677510, 	 37.32210973200501058500, 	 35.90034433351815579272
5.71119999999999983231, 	 42.61585920342715638753, 	 41.30792901707847164516, 	 39.79903550344850060583
5.71229999999999993321, 	 46.67562025724632945867, 	 45.24558941459299887811, 	 43.64593682683517528176
5.71340000000000003411, 	 50.74557394095898388287, 	 49.18903458483362811648, 	 47.48612265890449890549
5.71450000000000013500, 	 54.84879018615630741351, 	 53.16303424196769356058, 	 51.34495700403940077194
5.71560000000000023590, 	 58.98300585145462093806, 	 57.16842560407897622099, 	 55.22993963731676814177
5.71670000000000033680, 	 63.13848285939075566375, 	 61.19833511244976875787, 	 59.13785196571080859940
5.71780000000000043769, 	 67.30139760853053587653, 	 65.23845876729865267407, 	 63.05615220350200900157
5.71890000000000053859, 	 71.45715403565560563948, 	 69.27289811366763672140, 	 66.97000436352763586001
5.72000000000000063949, 	 75.59446201563932277168, 	 73.28901143055441025354, 	 70.86725261542970599749
5.72109999999999985221, 	 79.70778928292169496217, 	 77.28066935917740920559, 	 74.74234046649448259814
5.72219999999999995310, 	 83.79834166745474988147, 	 81.24965165374504749707, 	 78.59784318737902708563
5.72330000000000005400, 	 87.87300684593726884941, 	 85.20439545855046503675, 	 82.44293622072333960205
5.72440000000000015490, 	 91.94146646612131235088, 	 89.15655277304507819736, 	 86.28974548068619299102
5.72550000000000025580, 	 96.01269625670020957386, 	 93.11692120791359172927, 	 90.14933267446748743623
5.72660000000000035669, 	 100.09229223449526102740, 	 97.09240057595788186973, 	 94.02884100081300289276
5.72770000000000045759, 	 104.18145476330340670756, 	 101.08484926040455320617, 	 97.93046961908238756678
5.72880000000000055849, 	 108.27758186967041353910, 	 105.09173283421205269406, 	 101.85208716444573440185
5.72990000000000065938, 	 112.37582164347223567802, 	 109.10783254347155946107, 	 105.78880439474275476641
5.73099999999999987210, 	 116.47078737168027373627, 	 113.12714450352747519446, 	 109.73473654521697540076
5.73209999999999997300, 	 120.55784627525851249175, 	 117.14433358839333720880, 	 113.68439749827567197826
5.73320000000000007390, 	 124.63374347152918630854, 	 121.15547979409326728728, 	 117.63348162240794181344
5.73430000000000017479, 	 128.69662327241204025086, 	 125.15817098540401275386, 	 121.57905458637036133496
5.73540000000000027569, 	 132.74566971068801990441, 	 129.15116700392880488835, 	 125.51932872928838946791
5.73650000000000037659, 	 136.78061414927438477207, 	 133.13389482418827469701, 	 129.45324339520229273148
5.73760000000000047748, 	 140.80129569565445990520, 	 137.10597505745272428612, 	 133.38003323318162074429
5.73870000000000057838, 	 144.80737299225728520469, 	 141.06689586241361666907, 	 137.29890697131733645620
5.73980000000000067928, 	 148.79820917093130105968, 	 145.01586812506229762221, 	 141.20888360653611925954
5.74089999999999989200, 	 152.77289782068771728518, 	 148.95183568545752450518, 	 145.10877498326374279713
5.74199999999999999289, 	 156.73037256180924714499, 	 152.87358272053634777876, 	 148.99726729380739698172
5.74310000000000009379, 	 160.66953983834815744558, 	 156.77987293717905004087, 	 152.87304118350536441540
5.74420000000000019469, 	 164.58938746549472398328, 	 160.66956684317895565073, 	 156.73487772008363094756
5.74530000000000029559, 	 168.48904265806726243682, 	 164.54168587190847006241, 	 160.58171820355750014642
5.74640000000000039648, 	 172.36777625855231121932, 	 168.39541780820252370177, 	 164.41266969091134342307
5.74750000000000049738, 	 176.22496515471900124794, 	 172.23007453460982674187, 	 168.22696368321675208790
5.74860000000000059828, 	 180.06003325679967019823, 	 176.04502491833085286999, 	 172.02389065833924064464
5.74970000000000069917, 	 183.87239352662217584111, 	 179.83962795727993011496, 	 175.80273381221965678378
5.75079999999999991189, 	 187.66140668879637587452, 	 183.61318378914398863344, 	 179.56271877999708408424
5.75190000000000001279, 	 191.42636276593245270305, 	 187.36490995656509994660, 	 183.30298706643628747770
5.75300000000000011369, 	 195.16648340734533917384, 	 191.09394132670666976992, 	 187.02259262643505621782
5.75410000000000021458, 	 198.88093815708154465938, 	 194.79934652646784343233, 	 190.72051546498286711540
5.75520000000000031548, 	 202.56886626832024944633, 	 198.48015164381493491419, 	 194.39568357050464442182
5.75630000000000041638, 	 206.22939683239184205377, 	 202.13536301923468840869, 	 198.04699548132185782379
5.75740000000000051728, 	 209.86166572430641963365, 	 205.76399006714302686305, 	 201.67335014178723895384
5.75850000000000061817, 	 213.46482866177348114434, 	 209.36505715276322803220, 	 205.27364593202975129316
5.75960000000000071907, 	 217.03804548780618688397, 	 212.93758388393942482253, 	 208.84676569733377959892
5.76069999999999993179, 	 220.58046294387037278284, 	 216.48059122260494291368, 	 212.39079228719586467378
5.76180000000000003268, 	 224.09171019530685953214, 	 219.99290594138872734220, 	 215.90380413185894781236
5.76290000000000013358, 	 227.57122807525254870598, 	 223.47407018608060980114, 	 219.38610386305370525406
5.76400000000000023448, 	 231.01836019858305348862, 	 226.92354127907253769081, 	 222.83726258179711976481
5.76510000000000033538, 	 234.43221007161778857153, 	 230.34040740575605354934, 	 226.25636324960979095522
5.76620000000000043627, 	 237.81170083252547442498, 	 233.72349105205739761004, 	 229.64216745008587849952
5.76730000000000053717, 	 241.15570744462164043398, 	 237.07151905053333962314, 	 232.99330459737709020374
5.76840000000000063807, 	 244.46316941695621949293, 	 240.38326329617962073826, 	 236.30842069563149721034
5.76949999999999985079, 	 247.73314698409112111221, 	 243.65761532014579415772, 	 239.58626202591105425199
5.77059999999999995168, 	 250.96482418282440107760, 	 246.89360005635091965814, 	 242.82570054363935696529
5.77170000000000005258, 	 254.15748111084343463517, 	 250.09035295067863557961, 	 246.02572199181079781738
5.77280000000000015348, 	 257.31045799820725505924, 	 253.24708470641996882478, 	 249.18539793918841951381
5.77390000000000025437, 	 260.42312511023720844605, 	 256.36304923439428193888, 	 252.30385646997950743753
5.77500000000000035527, 	 263.49486410174375805582, 	 259.43752249915496577160, 	 255.38026130036791983002
5.77610000000000045617, 	 266.52506120019916124875, 	 262.46979343609098123125, 	 258.41380076717075553461
5.77720000000000055707, 	 269.51310819516493211268, 	 265.45916355550843945821, 	 261.40368569146454547081
5.77830000000000065796, 	 272.45840842127103087478, 	 268.40495305924565627720, 	 264.34915500337933735864
5.77939999999999987068, 	 275.36038538341949788446, 	 271.30651068354023891516, 	 267.24948584409708018939
5.78049999999999997158, 	 278.21849134076865084353, 	 274.16322387880342148492, 	 270.10400423214827014817
5.78160000000000007248, 	 281.03221349645173177123, 	 276.97452635222157368844, 	 272.91209301912823548264
5.78270000000000017337, 	 283.80107652905803661270, 	 279.73990134987741384975, 	 275.67319538609837081822
5.78380000000000027427, 	 286.52464131137230651802, 	 282.45888021492032748938, 	 278.38681304914553038543
5.78490000000000037517, 	 289.20250105672556628633, 	 285.13103832467169240772, 	 281.05250300822268627599
5.78600000000000047606, 	 291.83427735447747863873, 	 287.75598972794904284456, 	 283.66986952415004452632
5.78710000000000057696, 	 294.41961130962334891592, 	 290.33337450012777480879, 	 286.23854782246320382910
5.78820000000000067786, 	 296.95815447315993651500, 	 292.86284898755928907121, 	 288.75819781863378921116
5.78929999999999989058, 	 299.44957228990489284115, 	 295.34409295174498311098, 	 291.22851765429157921972
5.79039999999999999147, 	 301.89356066826468349973, 	 297.77683083220034632177, 	 293.64926765790130502864
5.79150000000000009237, 	 304.28986324060014112547, 	 300.16085126027758178680, 	 296.02028741413562329399
5.79260000000000019327, 	 306.63827643058158400891, 	 302.49601080487462922974, 	 298.34149463625465159566
5.79370000000000029416, 	 308.93863885982318606693, 	 304.78221950141244178667, 	 300.61286658441593999669
5.79480000000000039506, 	 311.19081151996516609870, 	 307.01941647240369093197, 	 302.83441369948587862382
5.79590000000000049596, 	 313.39465894203510742955, 	 309.20754746982862570803, 	 305.00615691411542229616
5.79700000000000059686, 	 315.55003899483250506819, 	 311.34655272206236986676, 	 307.12811580217396567605
5.79810000000000069775, 	 317.65680293522450483579, 	 313.43636653186104013002, 	 309.20030810260368525633
5.79919999999999991047, 	 319.71480245538009512529, 	 315.47692484851557992442, 	 311.22275673326350897696
5.80030000000000001137, 	 321.72389867046643985304, 	 317.46817514185289610396, 	 313.19549896580173253824
5.80140000000000011227, 	 323.68396901105023744094, 	 319.41008408079738956076, 	 315.11859358809658715472
5.80250000000000021316, 	 325.59491017788047884096, 	 321.30264088834650237914, 	 316.99212400740418615896
5.80360000000000031406, 	 327.45663733351904056690, 	 323.14585645339980146673, 	 318.81619724801049642338
5.80470000000000041496, 	 329.26908083536909543909, 	 324.93975955150995105214, 	 320.59094002066854045552
5.80580000000000051585, 	 331.03218208975403058503, 	 326.68439190112991354908, 	 322.31649344541921209384
5.80690000000000061675, 	 332.74588967459283139760, 	 328.37980331957652424535, 	 323.99300762201625047965
5.80800000000000071765, 	 334.41015633523943506589, 	 330.02604775921372493031, 	 325.62063696202471874130
5.80909999999999993037, 	 336.02493705338542895333, 	 331.62318053353692448582, 	 327.19953668233438293100
5.81020000000000003126, 	 337.59018806419015845677, 	 333.17125665909622966865, 	 328.72986046363962486794
5.81130000000000013216, 	 339.10586652199822310649, 	 334.67033000731186120902, 	 330.21175900219668619684
5.81240000000000023306, 	 340.57193046326329977092, 	 336.12045287188840347881, 	 331.64537906373828946016
5.81350000000000033396, 	 341.98833876653299057580, 	 337.52167559879359259867, 	 333.03086267492722072348
5.81460000000000043485, 	 343.35505092569042062678, 	 338.87404605165636439779, 	 334.36834620885747426655
5.81570000000000053575, 	 344.67202658530709413753, 	 340.17760883766317192567, 	 335.65795927529728714944
5.81680000000000063665, 	 345.93922489526363506229, 	 341.43240434798872229294, 	 336.89982346015477787660
5.81789999999999984936, 	 347.15660379594470441589, 	 342.63846772800638973422, 	 338.09405100491420625985
5.81899999999999995026, 	 348.32411928239548615238, 	 343.79582777781990898802, 	 339.24074329392561821805
5.82010000000000005116, 	 349.44172447623037669473, 	 344.90450558763149047081, 	 340.33998912176855355938
5.82120000000000015206, 	 350.50936903210202899572, 	 345.96451389471098991635, 	 341.39186436717108108496
5.82230000000000025295, 	 351.52699976393540737263, 	 346.97585794604282227738, 	 342.39643310073165594076
5.82340000000000035385, 	 352.49456173411721238153, 	 347.93853656296994358854, 	 343.35374811702007491476
5.82450000000000045475, 	 353.41199803959960945576, 	 348.85254131811780098360, 	 344.26384899897732339014
5.82560000000000055564, 	 354.27924779497294593966, 	 349.71785386492177849505, 	 345.12675920833191867132
5.82670000000000065654, 	 355.09624377401758010819, 	 350.53444197015193140032, 	 345.94247779124083308488
5.82779999999999986926, 	 355.86289981591556852436, 	 351.30224179350653912479, 	 346.71096184586599520117
5.82889999999999997016, 	 356.57912202966878112420, 	 352.02118515450212044016, 	 347.43217949518998466374
5.83000000000000007105, 	 357.24484052540600487191, 	 352.69122990399921491189, 	 348.10612063323429765660
5.83110000000000017195, 	 357.86000721980525440813, 	 353.31235273368162097540, 	 348.73278475153222188965
5.83220000000000027285, 	 358.42458076143714151840, 	 353.88453268881875146690, 	 349.31216690462190399558
5.83330000000000037375, 	 358.93851368915943567117, 	 354.40773726134136722976, 	 349.84424550365827144560
5.83440000000000047464, 	 359.40174593678545988951, 	 354.88191518622187459187, 	 350.32897578871518362575
5.83550000000000057554, 	 359.81420470669274891407, 	 355.30699625280101372482, 	 350.76628984382654152796
5.83660000000000067644, 	 360.17580878540911726304, 	 355.68289621617606144355, 	 351.15610160494134106557
5.83769999999999988916, 	 360.48647458296881040951, 	 356.00952375787164783105, 	 351.49831382308792626645
5.83879999999999999005, 	 360.74612123346651060274, 	 356.28678638212875284808, 	 351.79282382648881366549
5.83990000000000009095, 	 360.95467306278470687175, 	 356.51459329314667456856, 	 352.03952624345794220062
5.84100000000000019185, 	 361.11205918714051676943, 	 356.69285497050759659032, 	 352.23831247308521597006
5.84210000000000029274, 	 361.21821117884047680491, 	 356.82148053610859506080, 	 352.38906809501241923499
5.84320000000000039364, 	 361.27306034064469031364, 	 356.90037470955178378063, 	 352.49167003655298913145
5.84430000000000049454, 	 361.27653595634791372504, 	 356.92943592648316553095, 	 352.54598502704516249651
5.84540000000000059543, 	 361.22856523129678407713, 	 356.90855646027165448686, 	 352.55187015378794512799
5.84650000000000069633, 	 361.12907488201608430245, 	 356.83762449601698563129, 	 352.50917540387354165432
5.84759999999999990905, 	 360.97799374071678357723, 	 356.71652742010007841600, 	 352.41774742256768604420
5.84870000000000000995, 	 360.77525552606346082030, 	 356.54515533373609059709, 	 352.27743348228545983147
5.84980000000000011084, 	 360.52080110356035902441, 	 356.32340401629988946297, 	 352.08808492891620289811
5.85090000000000021174, 	 360.21457994485450626598, 	 356.05117696876419586260, 	 351.84955967707236368369
5.85200000000000031264, 	 359.85655073956627347798, 	 355.72838642399250375092, 	 351.56172357269866779461
5.85310000000000041354, 	 359.44668129804023237739, 	 355.35495346683887873951, 	 351.22445077452783834815
5.85420000000000051443, 	 358.98494804534266222618, 	 354.93080762026448837787, 	 350.83762354108336012359
5.85530000000000061533, 	 358.47133545648739527678, 	 354.45588631647649435763, 	 350.40113186408058254528
5.85640000000000071623, 	 357.90583570622982279019, 	 353.93013458531027026766, 	 349.91487329679637241497
5.85749999999999992895, 	 357.28844866216684295068, 	 353.35350512367665487545, 	 349.37875314963275741320
5.85860000000000002984, 	 356.61918219199088753157, 	 352.72595871916047371997, 	 348.79268502328102385945
5.85970000000000013074, 	 355.89805264419521790842, 	 352.04746486848335962350, 	 348.15659151285285588528
5.86080000000000023164, 	 355.12508532321419352229, 	 351.31800240495061871115, 	 347.47040498546971321048
5.86190000000000033253, 	 354.30031513537181808715, 	 350.53756052808734011705, 	 346.73406919466111730799
5.86300000000000043343, 	 353.42378801414241706880, 	 349.70614092434379926999, 	 345.94754219884265467044
5.86410000000000053433, 	 352.49556296484041695294, 	 348.82376047622040005081, 	 345.11079945155393033929
5.86520000000000063523, 	 351.51571349762389218085, 	 347.89045293509133216503, 	 344.22383521280477225446
5.86629999999999984794, 	 350.48432725741980675593, 	 346.90626825733886562375, 	 343.28666128990766992501
5.86739999999999994884, 	 349.40150382945512319566, 	 345.87126981123878977087, 	 342.29930379293750775105
5.86850000000000004974, 	 348.26735189998873920558, 	 344.78553096099750518988, 	 341.26179960393739065694
5.86960000000000015064, 	 347.08198722252592460791, 	 343.64913272091371254646, 	 340.17419420861335765949
5.87070000000000025153, 	 345.84553229603255886104, 	 342.46216349901033026981, 	 339.03654178995975598809
5.87180000000000035243, 	 344.55811779981553399921, 	 341.22472094006946008449, 	 337.84890746912213899122
5.87290000000000045333, 	 343.21988511301640301099, 	 339.93691505857952961378, 	 336.61137080830809509280
5.87400000000000055422, 	 341.83098896057441606899, 	 338.59887153149423966170, 	 335.32402941413960206773
5.87510000000000065512, 	 340.39159937072594175334, 	 337.21073418965778500933, 	 333.98700168325001413905
5.87619999999999986784, 	 338.90190257094536718796, 	 335.77266627826986677974, 	 332.60042830705828009741
5.87729999999999996874, 	 337.36210094318084884435, 	 334.28485061148762724770, 	 331.16447265033951907753
5.87840000000000006963, 	 335.77241237398709472473, 	 332.74748892190729065987, 	 329.67932008708851299161
5.87950000000000017053, 	 334.13306893075713333019, 	 331.16080020059769140062, 	 328.14517607534986609608
5.88060000000000027143, 	 332.44431538437652307039, 	 329.52501901106489867743, 	 326.56226467911096733587
5.88170000000000037232, 	 330.70640996264495470314, 	 327.84039796521665266482, 	 324.93083508672788184413
5.88280000000000047322, 	 328.91963285799732830128, 	 326.10721980852849810617, 	 323.25117650180084183376
5.88390000000000057412, 	 327.08429426101190529153, 	 324.32580508910598382499, 	 321.52362078376023646342
5.88500000000000067502, 	 325.20072857781582342795, 	 322.49650179096789770483, 	 319.74852514287744043031
5.88609999999999988773, 	 323.26927595449001273664, 	 320.61966159530578579506, 	 317.92624548245385085465
5.88719999999999998863, 	 321.29026410306369143655, 	 318.69561885302215387128, 	 316.05711708263532955243
5.88830000000000008953, 	 319.26400233806742789966, 	 316.72468503904639192115, 	 314.14145259620499928133
5.88940000000000019043, 	 317.19079015385523234727, 	 314.70715999720351874203, 	 312.17955590324061176943
5.89050000000000029132, 	 315.07140778206746745127, 	 312.64329092357326089768, 	 310.17184165873959500459
5.89160000000000039222, 	 312.91101549256967473411, 	 310.53394910988339461255, 	 308.11791681098304707120
5.89270000000000049312, 	 310.70647460309237430920, 	 308.37915462835735525005, 	 306.01757134833383133810
5.89380000000000059401, 	 308.45577428873167491474, 	 306.17788869863716172404, 	 303.87075596202856786476
5.89490000000000069491, 	 306.15855443290359971797, 	 303.93006392864651843411, 	 301.67763119088084522446
5.89599999999999990763, 	 303.81541393839364673113, 	 301.63638455096815960133, 	 299.43892938867986686091
5.89710000000000000853, 	 301.42725971177458177408, 	 299.29792608893262695346, 	 297.15576309368350393925
5.89820000000000010942, 	 298.99500699829661698459, 	 296.91573914512855481007, 	 294.82920098647582562990
5.89930000000000021032, 	 296.51939984500012315038, 	 294.49068282627712278554, 	 292.46017670804178578692
5.90040000000000031122, 	 294.00103603159510612386, 	 292.02344954633235829533, 	 290.04947705971642335498
5.90150000000000041211, 	 291.44041049001481269443, 	 289.51459719971211370648, 	 287.59773679916355604291
5.90260000000000051301, 	 288.83794277939335870542, 	 286.96457650353698909385, 	 285.10545572382636692055
