x [cm], 	 0.40000000000000002220, 	 2.00000000000000000000, 	 3.60000000000000008882
0.00000000000000000000, 	 0.00000000000000000000, 	 0.00000000000000000000, 	 0.00000000000000000000
5.70020000000000059970, 	 4.76982769091956981811, 	 7.01490397447797864316, 	 9.28973623959187122523
5.70130000000000070060, 	 5.94912157205274638727, 	 7.62240426264899006981, 	 9.60829019132243900003
5.70239999999999991331, 	 8.59103927159559788151, 	 9.62790305076179819821, 	 11.10513774054427393878
5.70350000000000001421, 	 12.47129162416787906409, 	 12.99618078613448446390, 	 13.93209717617397203071
5.70460000000000011511, 	 17.16318348126423742883, 	 17.30734310776328044312, 	 17.72331677287928286546
5.70570000000000021600, 	 22.35808302404321779022, 	 22.25807534207839211149, 	 22.20876802350945666831
5.70680000000000031690, 	 27.73016263103439982274, 	 27.44929631332480823858, 	 26.98739698553623611588
5.70790000000000041780, 	 32.99720379206922160620, 	 32.51666053291933877745, 	 31.73107101167094867833
5.70900000000000051870, 	 37.95696844093941280107, 	 37.30279098131353521239, 	 36.30756201249014480936
5.71010000000000061959, 	 42.60485418047569083910, 	 41.78336724886525388456, 	 40.64745560359396137073
5.71119999999999983231, 	 47.04231697805340672858, 	 46.06020849583445908593, 	 44.82216565190060464374
5.71229999999999993321, 	 51.38664951069691966268, 	 50.26530827673055057403, 	 48.94136850792390447396
5.71340000000000003411, 	 55.73810135318865377485, 	 54.47774075262229587224, 	 53.05312236729284336434
5.71450000000000013500, 	 60.13682931249552154895, 	 58.73562730127080300235, 	 57.19140300810281729582
5.71560000000000023590, 	 64.58668718834898925252, 	 63.04450309569691057732, 	 61.36624767410306446891
5.71670000000000033680, 	 69.07226177622234786213, 	 67.39089333457447139608, 	 65.57130123718454228765
5.71780000000000043769, 	 73.57247566723151521728, 	 71.75452731600731226536, 	 69.79204416255024057136
5.71890000000000053859, 	 78.06725608777988156817, 	 76.11330994837729235769, 	 74.01050477723717335721
5.72000000000000063949, 	 82.53709386985616447419, 	 80.44738328234262780825, 	 78.21052415140792390957
5.72109999999999985221, 	 86.97608882424796661326, 	 84.75091271448145846534, 	 82.38392853653139979997
5.72219999999999995310, 	 91.38571560725321774044, 	 89.02480131235166993520, 	 86.53089345049842506796
5.72330000000000005400, 	 95.77345703888209982324, 	 93.27776574473179493907, 	 90.66074637276027203825
5.72440000000000015490, 	 100.15086246405383008096, 	 97.52360154621140964082, 	 94.78802906712334674921
5.72550000000000025580, 	 104.52979951980630346497, 	 101.77652435683695841817, 	 98.92741027943614540163
5.72660000000000035669, 	 108.91880543398728775628, 	 106.04686897150355662234, 	 103.08946374377121912858
5.72770000000000045759, 	 113.32106664596807377166, 	 110.33879726211810634595, 	 107.27861076534603057553
5.72880000000000055849, 	 117.73452542843143930895, 	 114.65044420790295021106, 	 111.49337480074096617955
5.72990000000000065938, 	 122.15358568400733929593, 	 118.97582848949589617860, 	 115.72820061919370004944
5.73099999999999987210, 	 126.57138682372031723844, 	 123.30736918505715493666, 	 119.97577775707620162393
5.73209999999999997300, 	 130.98170940916057247705, 	 127.63799778184791477997, 	 124.22899793185194994294
5.73320000000000007390, 	 135.38002228205616006562, 	 131.96235253186728186847, 	 128.48212545424667041516
5.73430000000000017479, 	 139.76366995430549877710, 	 136.27705978566254430007, 	 132.73118207561213921508
5.73540000000000027569, 	 144.13149071431641345953, 	 140.58039860519227204350, 	 136.97376858062685300865
5.73650000000000037659, 	 148.48321036060366395759, 	 144.87169901099915136911, 	 141.20859807173695799065
5.73760000000000047748, 	 152.81886960894760818519, 	 149.15074215211274122339, 	 145.43497073243261752395
5.73870000000000057838, 	 157.13841685617981625001, 	 153.41730756503579868877, 	 149.65233221301727439823
5.73980000000000067928, 	 161.44149489056405855081, 	 157.67091322930073715725, 	 153.85998686945913505042
5.74089999999999989200, 	 165.72739575334850314903, 	 161.91073618137809830841, 	 158.05697888218912794400
5.74199999999999999289, 	 169.99513278100866386922, 	 166.13566831827276359945, 	 162.24211260082526564474
5.74310000000000009379, 	 174.24357260020005355727, 	 170.34444815009555895813, 	 166.41405908001678426444
5.74420000000000019469, 	 178.47157413731665087653, 	 174.53580868739459219796, 	 170.57148862105958642132
5.74530000000000029559, 	 182.67809424247460015067, 	 178.70859337606950134614, 	 174.71317875107928330181
5.74640000000000039648, 	 186.86223829029250964595, 	 182.86181297125804690040, 	 178.83806826030306069697
5.74750000000000049738, 	 191.02325463766814550581, 	 186.99464011854541922730, 	 182.94525227271458334144
5.74860000000000059828, 	 195.16048817388610814305, 	 191.10635764767130240216, 	 187.03393286276488538533
5.74970000000000069917, 	 199.27331687965909168270, 	 195.19628717282350294226, 	 191.10335036979873279961
5.75079999999999991189, 	 203.36109368542827269266, 	 199.26372237955587252145, 	 195.15271756048855422705
5.75190000000000001279, 	 207.42310791818891857474, 	 203.30788363235706128762, 	 199.18117363667852259823
5.75300000000000011369, 	 211.45857165738064509242, 	 207.32790031460581303691, 	 203.18776448673921208865
5.75410000000000021458, 	 215.46662757177679736742, 	 211.32281751081060860997, 	 207.17144650824593554717
5.75520000000000031548, 	 219.44636973921228673134, 	 215.29161790552367961027, 	 211.13110585456072954003
5.75630000000000041638, 	 223.39686806287639342372, 	 219.23324866072388772409, 	 215.06558377426151196232
5.75740000000000051728, 	 227.31718914851865065430, 	 223.14664528625056050259, 	 218.97370038968276162450
5.75850000000000061817, 	 231.20640989811886356620, 	 227.03074803019345040411, 	 222.85427218581668284969
5.75960000000000071907, 	 235.06362319435723406968, 	 230.88450969009230107076, 	 226.70612157549595622186
5.76069999999999993179, 	 238.88793723806386992692, 	 234.70689626330474197857, 	 230.52807949170917822812
5.76180000000000003268, 	 242.67847192535575118200, 	 238.49688514647806414359, 	 234.31898880268965967844
5.76290000000000013358, 	 246.43436160385527955441, 	 242.25347070309859986992, 	 238.07770912839637844627
5.76400000000000023448, 	 250.15474332041955563000, 	 245.97564298116316194864, 	 241.80308351762619167857
5.76510000000000033538, 	 253.83874073145727834344, 	 249.66237503260285279794, 	 245.49394054864058034582
5.76620000000000043627, 	 257.48545753330813568027, 	 253.31264236545104040488, 	 249.14824086675284320336
5.76730000000000053717, 	 261.09452796367855853532, 	 256.92520394035443587200, 	 252.76390072059913904923
5.76840000000000063807, 	 264.66540862570070657966, 	 260.49962156012037439723, 	 256.34131660623671677968
5.76949999999999985079, 	 268.19747267973536963837, 	 264.03540310555666792425, 	 259.88013107806466450711
5.77059999999999995168, 	 271.68984585062560199731, 	 267.53167859911047798960, 	 263.37948623367492473335
5.77170000000000005258, 	 275.14146061482745153626, 	 270.98729782940802124358, 	 266.83818881682657320198
5.77280000000000015348, 	 278.55119241704858268349, 	 274.40100506724917295287, 	 270.25490511891939604538
5.77390000000000025437, 	 281.91798090499713680401, 	 277.77158930028082295394, 	 273.62831903247069931240
5.77500000000000035527, 	 285.24089465362175133123, 	 281.09796836015965482147, 	 276.95722483651979928254
5.77610000000000045617, 	 288.51913992820664134342, 	 284.37920933678140045231, 	 280.24055924950971530052
5.77720000000000055707, 	 291.75203496540024161732, 	 287.61450852335877925725, 	 283.47739290766571684799
5.77830000000000065796, 	 294.93897309549538476858, 	 290.80315577646518931942, 	 286.66690279907970761997
5.77939999999999987068, 	 298.07939010337054241973, 	 293.94450020764662667716, 	 289.80834133218178294555
5.78049999999999997158, 	 301.17274201216167739403, 	 297.03792487125798515990, 	 292.90101077937583795574
5.78160000000000007248, 	 304.21849444227575531841, 	 300.08283362804581884120, 	 295.94424902081129857834
5.78270000000000017337, 	 307.21612166940417409933, 	 303.07864827593300560693, 	 298.93742412083997805894
5.78380000000000027427, 	 310.16511067725946304563, 	 306.02481172780625229279, 	 301.87993593610451625864
5.78490000000000037517, 	 313.06496791980464422522, 	 308.92079518698369611229, 	 304.77122294036661287464
5.78600000000000047606, 	 315.91522677593314938349, 	 311.76610657201382537096, 	 307.61077049964023899520
5.78710000000000057696, 	 318.71545291647413478131, 	 314.56029655752354301512, 	 310.39811675128208889873
5.78820000000000067786, 	 321.46524715680749295643, 	 317.30296232752942842126, 	 313.13285667695828351498
5.78929999999999989058, 	 324.16424325816450391358, 	 319.99374298010206985055, 	 315.81463248143279543001
5.79039999999999999147, 	 326.81209622466207065372, 	 322.63230444659592421885, 	 318.44311725233882270913
5.79150000000000009237, 	 329.40847348665039362459, 	 325.21833172551362167724, 	 321.01801336665391772840
5.79260000000000019327, 	 331.95306137628858778044, 	 327.75153990564234618432, 	 323.53906977311964965338
5.79370000000000029416, 	 334.44558269469291644782, 	 330.23169577390973472575, 	 326.00610442348903461607
5.79480000000000039506, 	 336.88581071878309103340, 	 332.65863256222041854926, 	 328.41901487076705734580
5.79590000000000049596, 	 339.27356855336950047786, 	 335.03224653110027020375, 	 330.77776935249994494370
5.79700000000000059686, 	 341.60871374668931821361, 	 337.35247691851014906206, 	 333.08238291173779543897
5.79810000000000069775, 	 343.89111687636966507853, 	 339.61927995563735294127, 	 335.33289005246405167782
5.79919999999999991047, 	 346.12064445830611703059, 	 341.83260864161138670170, 	 337.52932470579156642998
5.80030000000000001137, 	 348.29715217513421521289, 	 343.99240464775448344881, 	 339.67171258094134600469
5.80140000000000011227, 	 350.42048828889988953961, 	 346.09860186776359114447, 	 341.76007469622851431268
5.80250000000000021316, 	 352.49050289475098907133, 	 348.15113661175610104692, 	 343.79443707987906009294
5.80360000000000031406, 	 354.50705771338215299693, 	 350.14995850958428036392, 	 345.77484108385181116319
5.80470000000000041496, 	 356.47003274219912327681, 	 352.09503804286333661366, 	 347.70135056857128574848
5.80580000000000051585, 	 358.37932845454508878902, 	 353.98636911774951840925, 	 349.57405431786190774801
5.80690000000000061675, 	 360.23486412679591239794, 	 355.82396724598663695360, 	 351.39306419150511828775
5.80800000000000071765, 	 362.03657392334503128950, 	 357.60786505779992694443, 	 353.15851052393026066056
5.80909999999999993037, 	 363.78440238382739835288, 	 359.33810693645341416413, 	 354.87053642146781839983
5.81020000000000003126, 	 365.47830045590887948492, 	 361.01474408362770418535, 	 356.52929226533035489410
5.81130000000000013216, 	 367.11822262257328475243, 	 362.63783071343885922033, 	 358.13493120930229451915
5.81240000000000023306, 	 368.70412519979299759143, 	 364.20742155035298992516, 	 359.68760595656880241222
5.81350000000000033396, 	 370.23596558553788327117, 	 365.72357045197276192994, 	 361.18746671900544242817
5.81460000000000043485, 	 371.71370210929438826497, 	 367.18632979246092418180, 	 362.63466002977645530336
5.81570000000000053575, 	 373.13729411845139338766, 	 368.59575019596940137490, 	 364.02932799736424840376
5.81680000000000063665, 	 374.50670200552008282102, 	 369.95188026263002711858, 	 365.37160760991213237503
5.81789999999999984936, 	 375.82188698457895270622, 	 371.25476605762509052511, 	 366.66162988695219837609
5.81899999999999995026, 	 377.08281066354652466543, 	 372.50445042274219531464, 	 367.89951891250080961981
5.82010000000000005116, 	 378.28943442985172396220, 	 373.70097203852998291040, 	 369.08539052832577453955
5.82120000000000015206, 	 379.44171852329901639678, 	 374.84436403459102393754, 	 370.21935039513238052677
5.82230000000000025295, 	 380.53962068340945279488, 	 375.93465209693295037141, 	 371.30149165506031749828
5.82340000000000035385, 	 381.58309498324479136500, 	 376.97185304962471263934, 	 372.33189363507040070544
5.82450000000000045475, 	 382.57209188418397616260, 	 377.95597506777988883186, 	 373.31062246904804169390
5.82560000000000055564, 	 383.50655965474254571745, 	 378.88701948643796413307, 	 374.23773322588436940350
5.82670000000000065654, 	 384.38644585945348808309, 	 379.76498151027396943391, 	 375.11326680839988512162
5.82779999999999986926, 	 385.21168555726097793013, 	 380.58983047116049647229, 	 375.93722183733439123898
5.82889999999999997016, 	 385.98219935253433732214, 	 381.36152151778946972627, 	 376.70959734976645449933
5.83000000000000007105, 	 386.69792651178067899309, 	 382.08003156526336852039, 	 377.43041329768436753511
5.83110000000000017195, 	 387.35882804014505609302, 	 382.74535617655618580102, 	 378.09969878537896192938
5.83220000000000027285, 	 387.96487379454742949747, 	 383.35749568944152088079, 	 378.71748131174547324918
5.83330000000000037375, 	 388.51603179074015770311, 	 383.91644422576302986272, 	 379.28377808029853213156
5.83440000000000047464, 	 389.01226317199950699433, 	 384.42218441415519691873, 	 379.79859152987398829282
5.83550000000000057554, 	 389.45352191801282515371, 	 384.87468684310772459867, 	 380.26190833846027317122
5.83660000000000067644, 	 389.83975637410992476362, 	 385.27391100263952239402, 	 380.67369884995298434660
5.83769999999999988916, 	 390.17091030239055271522, 	 385.61980618656082242524, 	 381.03391804282716748276
5.83879999999999999005, 	 390.44692396797017863719, 	 385.91231203742853494987, 	 381.34250437406382161498
5.83990000000000009095, 	 390.66773314999892363630, 	 386.15135738932758613373, 	 381.59937940886464957657
5.84100000000000019185, 	 390.83326965240297568016, 	 386.33686126726638576656, 	 381.80444939053148800667
5.84210000000000029274, 	 390.94346261876734160978, 	 386.46873452072827603843, 	 381.95760705106732757486
5.84320000000000039364, 	 390.99823997534855379854, 	 386.54688169411099352146, 	 382.05873384941264703230
5.84430000000000049454, 	 390.99752996382358105620, 	 386.57120311873245555034, 	 382.10770260425545075122
5.84540000000000059543, 	 390.94126276152900345551, 	 386.54159716709159511083, 	 382.10438034102111259926
5.84650000000000069633, 	 390.82937206864249901628, 	 386.45796248328520050563, 	 382.04863110778887858032
5.84759999999999990905, 	 390.66179651483002999157, 	 386.32019998425039375434, 	 381.94031848759857439290
5.84870000000000000995, 	 390.43848069260508282241, 	 386.12821436408745512381, 	 381.77930749065211557536
5.84980000000000011084, 	 390.15937569927660888425, 	 385.88191497030396703849, 	 381.56546572754791668558
5.85090000000000021174, 	 389.82443922983964057494, 	 385.58121610618826480277, 	 381.29866393881241037889
5.85200000000000031264, 	 389.43363538189623795915, 	 385.22603695612758656353, 	 380.97877610065694398145
5.85310000000000041354, 	 388.98693437686199558811, 	 384.81630137824862458729, 	 380.60567936550256717965
5.85420000000000051443, 	 388.48431236535037669455, 	 384.35193773680862250330, 	 380.17925388099456540658
5.85530000000000061533, 	 387.92575107050583937962, 	 383.83287853556572599700, 	 379.69938287163051882089
5.85640000000000071623, 	 387.31123905128356454952, 	 383.25906250776444039730, 	 379.16595524830586327880
5.85749999999999992895, 	 386.64077200887220442382, 	 382.63043412984012547895, 	 378.57886385162152009798
5.85860000000000002984, 	 385.91435222855767506189, 	 381.94694355263442275827, 	 377.93800658417723070670
5.85970000000000013074, 	 385.13198942651763445610, 	 381.20854789088764391636, 	 377.24328816345922632536
5.86080000000000023164, 	 384.29370228855958657732, 	 380.41521333406575422487, 	 376.49462278235421308636
5.86190000000000033253, 	 383.39952036208603658451, 	 379.56691761866454726260, 	 375.69193692877672674513
5.86300000000000043343, 	 382.44948544388972777597, 	 378.66365170655132033062, 	 374.83517096771117849130
5.86410000000000053433, 	 381.44365156723506515846, 	 377.70541965197395484211, 	 373.92427863849400182517
5.86520000000000063523, 	 380.38208353845664078108, 	 376.69223679095290435725, 	 372.95922500717148295735
5.86629999999999984794, 	 379.26485492385535280846, 	 375.62412737977433607739, 	 371.93998408725099125149
5.86739999999999994884, 	 378.09204652440058680440, 	 374.50112287418818368678, 	 370.86653728317799050274
5.86850000000000004974, 	 376.86374603385866066674, 	 373.32326165806910012179, 	 369.73887343681059292066
5.86960000000000015064, 	 375.58004904984926497491, 	 372.09059040437239218591, 	 368.55699058999528006098
5.87070000000000025153, 	 374.24106108349786836698, 	 370.80316663593993098402, 	 367.32089896292688990798
5.87180000000000035243, 	 372.84689991091198635331, 	 369.46106170489406395063, 	 366.03062432452935581750
5.87290000000000045333, 	 371.39769761213261745070, 	 368.06436341858170635533, 	 364.68621097011737219873
5.87400000000000055422, 	 369.89360187305652516443, 	 366.61317779813435890901, 	 363.28772377313958941158
5.87510000000000065512, 	 368.33477642400185914084, 	 365.10762980277428368936, 	 361.83524913889687013580
5.87619999999999986784, 	 366.72140076021156573916, 	 363.54786317279905460964, 	 360.32889500726065534764
5.87729999999999996874, 	 365.05366943213630293030, 	 361.93403971284669751185, 	 358.76879022361174520483
5.87840000000000006963, 	 363.33179122869040611477, 	 360.26633840566597655197, 	 357.15508369487446316271
5.87950000000000017053, 	 361.55598838352034363197, 	 358.54495436869541435954, 	 355.48794301778673343506
5.88060000000000027143, 	 359.72649563194994470905, 	 356.77009769860842425260, 	 353.76755331606426580038
5.88170000000000037232, 	 357.84356001784431100532, 	 354.94199372746857079619, 	 351.99411914936973744261
5.88280000000000047322, 	 355.90744617985535569460, 	 353.06089186009620561890, 	 350.16787851460958336247
5.88390000000000057412, 	 353.91844689016318170616, 	 351.12707781802123463422, 	 348.28911271597701215796
5.88500000000000067502, 	 351.87688309433383437863, 	 349.14086985555968567496, 	 346.35813451590337308517
5.88609999999999988773, 	 349.78308797951683573046, 	 347.10259740684432472335, 	 344.37526280469018047370
5.88719999999999998863, 	 347.63738809559424680629, 	 345.01257956411586746981, 	 342.34080350680426363397
5.88830000000000008953, 	 345.44009644125048907881, 	 342.87111916007614809132, 	 340.25504839086278252580
5.88940000000000019043, 	 343.19225483390795261585, 	 340.67843847205944030065, 	 338.11840459967663718999
5.89050000000000029132, 	 340.89912383524074357410, 	 338.43552468706320723868, 	 335.93032724453308901502
5.89160000000000039222, 	 338.55714691079850808819, 	 336.14220476255604808102, 	 333.69062064702552561357
5.89270000000000049312, 	 336.16427670270400085428, 	 333.79738785696827108040, 	 331.39913715984141617810
5.89380000000000059401, 	 333.72008732587090662491, 	 331.40095064833440119401, 	 329.05602805766915253116
5.89490000000000069491, 	 331.22519596683389409009, 	 328.95358330663907509006, 	 326.66197083370042264505
5.89599999999999990763, 	 328.68052442478551711247, 	 326.45637134883344288028, 	 324.21808367064829781157
5.89710000000000000853, 	 326.08703222188950121563, 	 323.91041859203977537618, 	 321.72549868830907371375
5.89820000000000010942, 	 323.44552390899968941085, 	 321.31663667280412255423, 	 319.18516283900197549883
5.89930000000000021032, 	 320.75659305868498449854, 	 318.67569109652038150671, 	 316.59781253213310492356
5.90040000000000031122, 	 318.02071029740295671218, 	 315.98810862967894763642, 	 313.96406135350042632126
5.90150000000000041211, 	 315.23830261412859954362, 	 313.25434943176622937244, 	 311.28442871835011374060
5.90260000000000051301, 	 312.40977612232222782040, 	 310.47483094111277068805, 	 308.55936092469261211590
