x [cm], 	 0.69214285714285717077, 	 48.45000000000000284217, 	 96.20785714285715073402
0.00000000000000000000, 	 0.00000000000000000000, 	 0.00000000000000000000, 	 0.00000000000000000000
5.70020000000000059970, 	 0.25983624471223204511, 	 1.32719638658274119436, 	 2.43127625081469611601
5.70130000000000070060, 	 0.28404943387351494488, 	 1.33616896749783586884, 	 2.42231119095691260767
5.70239999999999991331, 	 0.30822809184839644603, 	 1.34533660803568877462, 	 2.41354076764166869395
5.70350000000000001421, 	 0.33234159543374158785, 	 1.35468051932331445819, 	 2.40496304781190639588
5.70460000000000011511, 	 0.35635918073638983561, 	 1.36418110154389515820, 	 2.39657576142976092015
5.70570000000000021600, 	 0.38025000763094368716, 	 1.37381799719234543034, 	 2.38837627339826097383
5.70680000000000031690, 	 0.40398324312072347864, 	 1.38357013826786379163, 	 2.38036172851643978987
5.70790000000000041780, 	 0.42752802613196877468, 	 1.39341581150535431810, 	 2.37252850275874882513
5.70900000000000051870, 	 0.45085362676750734279, 	 1.40333274027265919592, 	 2.36487252308176687521
5.71010000000000061959, 	 0.47392944364366773602, 	 1.41329815559229388100, 	 2.35739025339528351921
5.71119999999999983231, 	 0.49672524912161408750, 	 1.42328886341106386482, 	 2.35007814079639310023
5.71229999999999993321, 	 0.51921149252006637553, 	 1.43328129471086018754, 	 2.34293179585486699423
5.71340000000000003411, 	 0.54136011955990515077, 	 1.44325156260342235548, 	 2.33594716118122214255
5.71450000000000013500, 	 0.56314630812504695712, 	 1.45317552229940227804, 	 2.32912012440902538302
5.71560000000000023590, 	 0.58455178377590089056, 	 1.46302884268855115657, 	 2.32244582920771724943
5.71670000000000033680, 	 0.60557031831344876327, 	 1.47278709960519393896, 	 2.31591895997955710129
5.71780000000000043769, 	 0.62621562518923046259, 	 1.48242602506315490629, 	 2.30953402076717662084
5.71890000000000053859, 	 0.64653125499155361666, 	 1.49192226446928044581, 	 2.30328544193777329241
5.72000000000000063949, 	 0.66660172857572852489, 	 1.50125321338075590205, 	 2.29716757604217081123
5.72109999999999985221, 	 0.68656435644654878470, 	 1.51039708534160110887, 	 2.29117466242342660010
5.72219999999999995310, 	 0.70661980661350820565, 	 1.51933414944865363694, 	 2.28530080475303032372
5.72330000000000005400, 	 0.72703999791605367076, 	 1.52804798482238402002, 	 2.27953997899362326152
5.72440000000000015490, 	 0.74817198117866678952, 	 1.53652717240799585596, 	 2.27388607607395387689
5.72550000000000025580, 	 0.77043762067169896390, 	 1.54476747800942049160, 	 2.26833297637601161156
5.72660000000000035669, 	 0.79432823369629501631, 	 1.55277451957448708875, 	 2.26287466376060386608
5.72770000000000045759, 	 0.82039194130419246243, 	 1.56056685514877546694, 	 2.25750538456323823766
5.72880000000000055849, 	 0.84923859752912245202, 	 1.56817934243305145969, 	 2.25221989171203551550
5.72990000000000065938, 	 0.88151054178792509486, 	 1.57566646615024597011, 	 2.24701367341932645161
5.73099999999999987210, 	 0.91787061026172167555, 	 1.58310560522942700423, 	 2.24188333621991464639
5.73209999999999997300, 	 0.95896171046589440135, 	 1.59060016180922159101, 	 2.23682706495175720462
5.73320000000000007390, 	 1.00516485838543734310, 	 1.59828209372404494992, 	 2.23184523154111680299
5.73430000000000017479, 	 1.05903841515438146281, 	 1.60631574052739090064, 	 2.22694103293140432953
5.73540000000000027569, 	 1.11795529565629259139, 	 1.61489952237543543667, 	 2.22212119288322362820
5.73650000000000037659, 	 1.18272755451292566065, 	 1.62426448238249077072, 	 2.21739671648251546188
5.73760000000000047748, 	 1.25591976108508451837, 	 1.63467720309421271629, 	 2.21278361162941505924
5.73870000000000057838, 	 1.33774766556604496337, 	 1.64643033756218937214, 	 2.20830355870928984885
5.73980000000000067928, 	 1.42851613226968154891, 	 1.65983581535326663037, 	 2.20398486816777516850
5.74089999999999989200, 	 1.52856428664953547525, 	 1.67523129155169225868, 	 2.19986342380149446640
5.74199999999999999289, 	 1.63815895795577448624, 	 1.69298311405091239656, 	 2.19598289946686930918
5.74310000000000009379, 	 1.75746210604233965569, 	 1.71348321593685559705, 	 2.19239501285352877957
5.74420000000000019469, 	 1.88664776262446531874, 	 1.73714328875544987696, 	 2.18915909280723353092
5.74530000000000029559, 	 2.02592257266224162748, 	 1.76438812126415633941, 	 2.18634246577239421683
5.74640000000000039648, 	 2.17544001679947429650, 	 1.79564907030284670597, 	 2.18402001738634776729
5.74750000000000049738, 	 2.33524432025021910775, 	 1.83135827937911677132, 	 2.18227395555117054116
5.74860000000000059828, 	 2.50531960340252268793, 	 1.87194093343614231806, 	 2.18119420289347898390
5.74970000000000069917, 	 2.68561435294823613873, 	 1.91775051453854517014, 	 2.18087599306972768076
5.75079999999999991189, 	 2.87606927143585044959, 	 1.96914457079776439308, 	 2.18141304691048887321
5.75190000000000001279, 	 3.07659748102917118828, 	 2.02656257499601810679, 	 2.18291194804509691707
5.75300000000000011369, 	 3.28708037973504296758, 	 2.09037630503163196494, 	 2.18548563498140335781
5.75410000000000021458, 	 3.50736946611570887811, 	 2.16092425712002267346, 	 2.18924816206799377483
5.75520000000000031548, 	 3.73728759556934608810, 	 2.23851468552550114666, 	 2.19431577318390491627
5.75630000000000041638, 	 3.97663210484760920593, 	 2.32342507821913724086, 	 2.20050755388006091806
5.75740000000000051728, 	 4.22517537326762138150, 	 2.41590030560971014140, 	 2.20708916870859717108
5.75850000000000061817, 	 4.48266147218782418093, 	 2.51615057635891581356, 	 2.21516733965479373225
5.75960000000000071907, 	 4.74881143319739518205, 	 2.62434764980522849953, 	 2.22661776118818055537
5.76069999999999993179, 	 5.02332992201654526809, 	 2.74062118474149984948, 	 2.24056926568389691568
5.76180000000000003268, 	 5.30591063011392360949, 	 2.86506291808303448221, 	 2.25658966591596810147
5.76290000000000013358, 	 5.59621887241656423839, 	 2.99773421279135288131, 	 2.27426838066772951663
5.76400000000000023448, 	 5.89392937254349913445, 	 3.13866575729723029653, 	 2.29389909069163477895
5.76510000000000033538, 	 6.19870715430089003206, 	 3.28785202455270075816, 	 2.31569559880077147085
5.76620000000000043627, 	 6.51020592140437326378, 	 3.44524654423846588003, 	 2.33978834488946185743
5.76730000000000053717, 	 6.82806865083829350738, 	 3.61076137485058801246, 	 2.36619934208304405487
5.76840000000000063807, 	 7.15192710665909636703, 	 3.78426931535477706348, 	 2.39492097789532243368
5.76949999999999985079, 	 7.48140267064445829703, 	 3.96560661117744261972, 	 2.42599992080356186008
5.77059999999999995168, 	 7.81611259580417971904, 	 4.15457509177305350789, 	 2.45951961514210637461
5.77170000000000005258, 	 8.15566619059664965619, 	 4.35094385508132486251, 	 2.49554131103917553602
5.77280000000000015348, 	 8.49966438735186180509, 	 4.55445107375416657902, 	 2.53410352391611226608
5.77390000000000025437, 	 8.84769998143573843663, 	 4.76480611377256124683, 	 2.57522974675285309942
5.77500000000000035527, 	 9.19935837384379162529, 	 4.98169190729827882080, 	 2.61893281384385367971
5.77610000000000045617, 	 9.55421816754734365418, 	 5.20476736674432327590, 	 2.66520731605292349187
5.77720000000000055707, 	 9.91185152879707587203, 	 5.43366959294630369470, 	 2.71400930457733036150
5.77830000000000065796, 	 10.27182440858855549948, 	 5.66801590969225266292, 	 2.76530474119030378333
5.77939999999999987068, 	 10.63369673069649223862, 	 5.90740585080299940302, 	 2.81907076512564946924
5.78049999999999997158, 	 10.99702117459972861013, 	 6.15142306132256244666, 	 2.87528598321786432734
5.78160000000000007248, 	 11.36134597726805672835, 	 6.39963724260922983689, 	 2.93392482486288042054
5.78270000000000017337, 	 11.72621511234916980015, 	 6.65160628131874620550, 	 2.99495342961292010386
5.78380000000000027427, 	 12.09116795312091419135, 	 6.90687840492002536052, 	 3.05832811033794937927
5.78490000000000037517, 	 12.45574024480263197745, 	 7.16499420551514365485, 	 3.12399825937598762948
5.78600000000000047606, 	 12.81946412408515278969, 	 7.42548865231789445573, 	 3.19190725710331202336
5.78710000000000057696, 	 13.18186864927115209412, 	 7.68789303628465514606, 	 3.26199319698355560959
5.78820000000000067786, 	 13.54247964889144562051, 	 7.95173679852338377572, 	 3.33418953661797967669
5.78929999999999989058, 	 13.90082262894338427373, 	 8.21654924554687760008, 	 3.40842564978296813649
5.79039999999999999147, 	 14.25642410404958759784, 	 8.48186117223093027917, 	 3.48462728547437006199
5.79150000000000009237, 	 14.60880940260148541654, 	 8.74720634126311225032, 	 3.56271695325191606329
5.79260000000000019327, 	 14.95750759953159558791, 	 9.01212288144466100448, 	 3.64261425518799519807
5.79370000000000029416, 	 15.30205074002696719049, 	 9.27615465152638130064, 	 3.72423618086493002366
5.79480000000000039506, 	 15.64197593341751435503, 	 9.53885269620680098512, 	 3.80749751258059410119
5.79590000000000049596, 	 15.97682743953210859900, 	 9.79977762553213693764, 	 3.89231115266726090951
5.79700000000000059686, 	 16.30615750166271382682, 	 10.05850550904245821471, 	 3.97858721981922425215
5.79810000000000069775, 	 16.62952727740414005098, 	 10.31461508031114959749, 	 4.06623460668554592701
5.79919999999999991047, 	 16.94650803441451003550, 	 10.56768297928441313616, 	 4.15516197754984517587
5.80030000000000001137, 	 17.25668244636083770160, 	 10.81730958133567810364, 	 4.24527634990737023912
5.80140000000000011227, 	 17.55964590291964455560, 	 11.06310858157774745791, 	 4.33648312639327748741
5.80250000000000021316, 	 17.85500776317255500203, 	 11.30470741635197917674, 	 4.42868803651838938151
5.80360000000000031406, 	 18.14239250856498841813, 	 11.54174818513096667516, 	 4.52179628857452708957
5.80470000000000041496, 	 18.42144082002947413912, 	 11.77388784251788678148, 	 4.61571127075013709629
5.80580000000000051585, 	 18.69181080384595361465, 	 12.00079871196567538050, 	 4.71033552039367453546
5.80690000000000061675, 	 18.95317827568509017055, 	 12.22216898875811530445, 	 4.80557118635473567991
5.80800000000000071765, 	 19.20523891096904378628, 	 12.43770336281975552595, 	 4.90132004170556268008
5.80909999999999993037, 	 19.44770913532428480153, 	 12.64712344963199086578, 	 4.99748464667367731096
5.81020000000000003126, 	 19.68032478073453361844, 	 12.85016807433901675495, 	 5.09396874357221296492
5.81130000000000013216, 	 19.90284157559679556471, 	 13.04659356360620314774, 	 5.19067697720641074710
5.81240000000000023306, 	 20.11503663378209338930, 	 13.23617402068569859352, 	 5.28751454195166648020
5.81350000000000033396, 	 20.31670975441736004541, 	 13.41870157985850120497, 	 5.38438790684653678653
5.81460000000000043485, 	 20.50768415059084404106, 	 13.59398660607651265764, 	 5.48120480130304255084
5.81570000000000053575, 	 20.68780668345774387262, 	 13.76185783273317397857, 	 5.57787428757374659227
5.81680000000000063665, 	 20.85694779202951920638, 	 13.92216245644537586656, 	 5.67430688675613748018
5.81789999999999984936, 	 21.01500131720438346861, 	 14.07476619785377280891, 	 5.77041472749775952167
5.81899999999999995026, 	 21.16188711869463290327, 	 14.21955332923546677648, 	 5.86611170275403193131
5.82010000000000005116, 	 21.29752418695616000832, 	 14.35642666590505456270, 	 5.96131362782166362990
5.82120000000000015206, 	 21.42187279078544648314, 	 14.48530754415758359244, 	 6.05593847078994151900
5.82230000000000025295, 	 21.53492327056029864707, 	 14.60613580063005123577, 	 6.14990645207263053607
5.82340000000000035385, 	 21.63668567367907158427, 	 14.71886954886547371757, 	 6.24314002554703240122
5.82450000000000045475, 	 21.72719080417439130315, 	 14.82348482990166615991, 	 6.33556410575899864313
5.82560000000000055564, 	 21.80648972193306533995, 	 14.91997531433702128822, 	 6.42710881494363128752
5.82670000000000065654, 	 21.87465200627936923183, 	 15.00835202856895733703, 	 6.51770825814993948200
5.82779999999999986926, 	 21.93176467917015060038, 	 15.08864305722979715085, 	 6.60728831164305674406
5.82889999999999997016, 	 21.97793192767785441788, 	 15.16089320979250132382, 	 6.69577614706509471887
5.83000000000000007105, 	 22.01327538906653202844, 	 15.22516364367063879115, 	 6.78310696248247602114
5.83110000000000017195, 	 22.03793419463537972547, 	 15.28153139083589984182, 	 6.86922371340207948975
5.83220000000000027285, 	 22.05206557702027581058, 	 15.33008922213002556134, 	 6.95407508527829243405
5.83330000000000037375, 	 22.05584618206086133796, 	 15.37094295234663832161, 	 7.03761375439041092505
5.83440000000000047464, 	 22.04946832459626548939, 	 15.40421233337155193510, 	 7.11979542038311130625
5.83550000000000057554, 	 22.03313623746995730812, 	 15.43003088082692109140, 	 7.20057863186087043772
5.83660000000000067644, 	 22.00706507690134117183, 	 15.44854482109793458733, 	 7.27992482958118714009
5.83769999999999988916, 	 21.97148014752236733216, 	 15.45991257579961164481, 	 7.35779804811860493885
5.83879999999999999005, 	 21.92661652515404568931, 	 15.46430389708409691707, 	 7.43416476184455632392
5.83990000000000009095, 	 21.87271894652127102177, 	 15.46189919786843880445, 	 7.50899441428907454821
5.84100000000000019185, 	 21.81004147549667848693, 	 15.45288875399988448578, 	 7.58225955852075905739
5.84210000000000029274, 	 21.73884676935365689587, 	 15.43747185179579517467, 	 7.65393610793170520168
5.84320000000000039364, 	 21.65940507316641472357, 	 15.41585590962132634729, 	 7.72400336105390206143
5.84430000000000049454, 	 21.57198857479708209439, 	 15.38825559170357415439, 	 7.79244396735703404033
5.84540000000000059543, 	 21.47686058669009767641, 	 15.35489161871070429299, 	 7.85924386088865833955
5.84650000000000069633, 	 21.37431695970137823792, 	 15.31598551360650439790, 	 7.92439217414721674970
5.84759999999999990905, 	 21.26459225621929149952, 	 15.27175789513024994903, 	 7.98788113742097038994
5.84870000000000000995, 	 21.14792700073545361761, 	 15.22246057162685239916, 	 8.04970594904069614017
5.84980000000000011084, 	 21.02462990869826953144, 	 15.16837069420917316620, 	 8.10986456795854415702
5.85090000000000021174, 	 20.89502029438344976597, 	 15.10969449180191226390, 	 8.16835745837108362366
5.85200000000000031264, 	 20.75946010543099617962, 	 15.04666097231967469838, 	 8.22518745182846799935
5.85310000000000041354, 	 20.61832314302572299880, 	 14.97951157685422352017, 	 8.28035980024041862180
5.85420000000000051443, 	 20.47194699206658441426, 	 14.90848618991574348058, 	 8.33388229807711589103
5.85530000000000061533, 	 20.32063597414144595632, 	 14.83382425508589008700, 	 8.38576531381651868458
5.85640000000000071623, 	 20.16467444068149816871, 	 14.75576411229920203994, 	 8.43602166828815036581
5.85749999999999992895, 	 20.00433685241215897577, 	 14.67454278196049699545, 	 8.48466639283292245466
5.85860000000000002984, 	 19.83989233173460320359, 	 14.59039535740565796118, 	 8.53171644627633618541
5.85970000000000013074, 	 19.67160782419598774595, 	 14.50355421978001402294, 	 8.57719043586452301042
5.86080000000000023164, 	 19.49974983746789192196, 	 14.41424813453822117992, 	 8.62110840373136610992
5.86190000000000033253, 	 19.32458178818522043230, 	 14.32270140888692111503, 	 8.66349173152223528405
5.86300000000000043343, 	 19.14636316918855740710, 	 14.22913314261334605249, 	 8.70436299140918556816
5.86410000000000053433, 	 18.96534874862798858430, 	 14.13375657985561772989, 	 8.74374570091469216493
5.86520000000000063523, 	 18.78178724357191597960, 	 14.03677851004114351952, 	 8.78166428395797993289
5.86629999999999984794, 	 18.59592254551748879976, 	 13.93839881774456657126, 	 8.81814454543081716054
5.86739999999999994884, 	 18.40799198988731433246, 	 13.83881006066208740890, 	 8.85321269970263635685
5.86850000000000004974, 	 18.21822562960482727590, 	 13.73819710492694490256, 	 8.88689553819137323387
5.86960000000000015064, 	 18.02684604171348325963, 	 13.63673687339874440738, 	 8.91922078579776389518
5.87070000000000025153, 	 17.83406807851119069142, 	 13.53459817223869876557, 	 8.95021668513630963560
5.87180000000000035243, 	 17.64009406722509964993, 	 13.43194147388035375457, 	 8.97991158721175608548
5.87290000000000045333, 	 17.44515085110971952531, 	 13.32891879547668523287, 	 9.00833360237732527764
5.87400000000000055422, 	 17.24945798084755921309, 	 13.22567358880244370312, 	 9.03551097376792888838
5.87510000000000065512, 	 17.05319674811438446227, 	 13.12234066932235343472, 	 9.06147182030737674552
5.87619999999999986784, 	 16.85652967420711334512, 	 13.01904630167614129732, 	 9.08624412482295262805
5.87729999999999996874, 	 16.65960847641468589586, 	 12.91590835603170006607, 	 9.10985589547304286384
5.87840000000000006963, 	 16.46257894653412989783, 	 12.81303636045234206620, 	 9.13233486285911766345
5.87950000000000017053, 	 16.26558110519318489651, 	 12.71053145794004990421, 	 9.15370840129743434943
5.88060000000000027143, 	 16.06874864459588536647, 	 12.60848635754463487046, 	 9.17400343414027652500
5.88170000000000037232, 	 15.87220832614223553492, 	 12.50698533717598337489, 	 9.19324623801004037205
5.88280000000000047322, 	 15.67607946900847792904, 	 12.40610562968616825685, 	 9.21146239119583576382
5.88390000000000057412, 	 15.48047399731863293937, 	 12.30591498581328124828, 	 9.22867685440242446759
5.88500000000000067502, 	 15.28549500744328604185, 	 12.20647180682524890472, 	 9.24491413039862663936
5.88609999999999988773, 	 15.09123858026030973178, 	 12.10782783149182506577, 	 9.26019797683722956094
5.88719999999999998863, 	 14.89779394623844233081, 	 12.01002710075444745996, 	 9.27455099316425268796
5.88830000000000008953, 	 14.70524276476041514172, 	 11.91310633135889673895, 	 9.28799500358118557131
5.88940000000000019043, 	 14.51365906363833957471, 	 11.81709522434220183129, 	 9.30055096518443313869
5.89050000000000029132, 	 14.32310939119464698877, 	 11.72201679795022144503, 	 9.31223908983428394492
5.89160000000000039222, 	 14.13365305832404139608, 	 11.62788770389597559074, 	 9.32307884227458316673
5.89270000000000049312, 	 13.94534239851421375533, 	 11.53471853731397089859, 	 9.33308864413965366680
5.89380000000000059401, 	 13.75822295663148864264, 	 11.44251417655991254207, 	 9.34228585897557195494
5.89490000000000069491, 	 13.57233635050054942894, 	 11.35127410031591033146, 	 9.35068689731454760761
5.89599999999999990763, 	 13.38771315222268221135, 	 11.26099273813976076042, 	 9.35830725705686994331
5.89710000000000000853, 	 13.20437873456666366678, 	 11.17165980655928869680, 	 9.36516158465542325473
5.89820000000000010942, 	 13.02237775049479928668, 	 11.08326064409514088993, 	 9.37126371531360469191
5.89930000000000021032, 	 12.84181062570500131415, 	 10.99577653375717822826, 	 9.37662666822191859239
5.90040000000000031122, 	 12.66267588859604664719, 	 10.90918503628251201576, 	 9.38126250701100339313
5.90150000000000041211, 	 12.48495196517854211038, 	 10.82346045771741671615, 	 9.38518278072295153436
5.90260000000000051301, 	 12.30861861696040371328, 	 10.73857451445776334253, 	 9.38839841251575357717
5.90370000000000061391, 	 12.13365887314676960784, 	 10.65449677791132465643, 	 9.39091904664117471668
5.90480000000000071481, 	 11.96005775377108903967, 	 10.57119482116406317118, 	 9.39275368499075824502
5.90589999999999992752, 	 11.78780061960799585563, 	 10.48863426312021829290, 	 9.39390988983498154141
5.90700000000000002842, 	 11.61687187392829834209, 	 10.40677884004667852480, 	 9.39439754085300648967
5.90810000000000012932, 	 11.44725231163894108022, 	 10.32559055450348672878, 	 9.39422937744689434680
5.90920000000000023022, 	 11.27892361327060655185, 	 10.24502989773429639797, 	 9.39341056893855785859
5.91030000000000033111, 	 11.11186546963158683354, 	 10.16505616488032259781, 	 9.39194504228996507322
5.91140000000000043201, 	 10.94605479273620929348, 	 10.08562775302509351150, 	 9.38983670850378615569
