x [cm], 	 0.69214285714285717077, 	 48.45000000000000284217, 	 96.20785714285715073402
0.00000000000000000000, 	 0.00000000000000000000, 	 0.00000000000000000000, 	 0.00000000000000000000
5.70020000000000059970, 	 1.21792551185790287605, 	 3.32154907125172371707, 	 7.24878772056762077369
5.70130000000000070060, 	 0.97450231749927418434, 	 3.15642067191821551475, 	 7.21267972068071916425
5.70239999999999991331, 	 0.73568141257256580712, 	 2.99493841501528335058, 	 7.17597664343948871135
5.70350000000000001421, 	 0.50156789987007488474, 	 2.83715910148922167977, 	 7.13870728005036525587
5.70460000000000011511, 	 0.27227410573264687610, 	 2.68313426718573255769, 	 7.10090027047942040639
5.70570000000000021600, 	 0.04796150054499540016, 	 2.53291035078203474740, 	 7.06258411925380791274
5.70680000000000031690, 	 -0.17124963574493304308, 	 2.38652886905780059479, 	 7.02378721048888721157
5.70790000000000041780, 	 -0.38525613550176335265, 	 2.24402659394464887299, 	 6.98453782490846553088
5.70900000000000051870, 	 -0.59395926963320933023, 	 2.10543572609071949486, 	 6.94486415825544778357
5.71010000000000061959, 	 -0.79704318712800337199, 	 1.97078405921143229307, 	 6.90479433908753392757
5.71119999999999983231, 	 -0.99435441036904415046, 	 1.84009512803745023390, 	 6.86435644368721753494
5.71229999999999993321, 	 -1.18592738414493736876, 	 1.71338833261380640849, 	 6.82357850613920557947
5.71340000000000003411, 	 -1.37176812244390089468, 	 1.59067903508821051339, 	 6.78248852221024112197
5.71450000000000013500, 	 -1.55186636219445306395, 	 1.47197863016023267058, 	 6.74111444631399514549
5.71560000000000023590, 	 -1.72616993891464787225, 	 1.35729459446646050225, 	 6.69948418144850599276
5.71670000000000033680, 	 -1.89462644747853126148, 	 1.24663052243838845534, 	 6.65762556249734682723
5.71780000000000043769, 	 -2.05723439179202038929, 	 1.13998615816194526218, 	 6.61556633366122603945
5.71890000000000053859, 	 -2.21399886350820773728, 	 1.03735743821244952301, 	 6.57333412102762082441
5.72000000000000063949, 	 -2.36492858053747845304, 	 0.93873656673540550877, 	 6.53095640139954713987
5.72109999999999985221, 	 -2.51003593565172522517, 	 0.84411214207936247078, 	 6.48846046850613245027
5.72219999999999995310, 	 -2.64933745843805734665, 	 0.75346934082254501952, 	 6.44587339762763189555
5.72330000000000005400, 	 -2.78285515691050910903, 	 0.66679014692622629035, 	 6.40322200950890874083
5.72440000000000015490, 	 -2.91061896475277404051, 	 0.58405360086838098432, 	 6.36053283423242010741
5.72550000000000025580, 	 -3.03266199709946349117, 	 0.50523604051295867290, 	 6.31783207549969461070
5.72660000000000035669, 	 -3.14902153718000965554, 	 0.43031130973461889644, 	 6.27514557555426133462
5.72770000000000045759, 	 -3.25974063901057675707, 	 0.35925091781117785006, 	 6.23249878079365338124
5.72880000000000055849, 	 -3.36486842056616053398, 	 0.29202413958583911535, 	 6.18991670798626891781
5.72990000000000065938, 	 -3.46445981053574847408, 	 0.22859805284919659796, 	 6.14742391094980700217
5.73099999999999987210, 	 -3.55857508167647518249, 	 0.16893751547184290840, 	 6.10504385384276382354
5.73209999999999997300, 	 -3.64727932762511608544, 	 0.11300509038157321995, 	 6.06280866792522665776
5.73320000000000007390, 	 -3.73064194139116533933, 	 0.06076093098283227162, 	 6.02074674220186167872
5.73430000000000017479, 	 -3.80873610091117953402, 	 0.01216264255399242440, 	 5.97887413997654082465
5.73540000000000027569, 	 -3.88163780261178636977, 	 -0.03283486368835304009, 	 5.93720755704312086465
5.73650000000000037659, 	 -3.94940756835887052389, 	 -0.07427950775972988473, 	 5.89576512998674662214
5.73760000000000047748, 	 -4.01211521248113633931, 	 -0.11222215532937934723, 	 5.85456636425176135674
5.73870000000000057838, 	 -4.06984562244582814827, 	 -0.14671669870562262239, 	 5.81363119205320710847
5.73980000000000067928, 	 -4.12268906769348486563, 	 -0.17782009770792669978, 	 5.77297914731598815763
5.74089999999999989200, 	 -4.17073408287655134075, 	 -0.20559237780231812143, 	 5.73262881082945963129
5.74199999999999999289, 	 -4.21406302848363356617, 	 -0.23009658620305678545, 	 5.69259750709337097874
5.74310000000000009379, 	 -4.25274886032618404386, 	 -0.25139870903506683630, 	 5.65290229632350094136
5.74420000000000019469, 	 -4.28685195334058377625, 	 -0.26956756556207989162, 	 5.61355964220612602134
5.74530000000000029559, 	 -4.31641632447759082680, 	 -0.28467570789173957113, 	 5.57458488176199118413
5.74640000000000039648, 	 -4.34146515971622992680, 	 -0.29679928702741537050, 	 5.53599239027690259718
5.74750000000000049738, 	 -4.36199526190771447176, 	 -0.30601051086084429809, 	 5.49779589359992293396
5.74860000000000059828, 	 -4.37797048855849446625, 	 -0.31238773052028268040, 	 5.46000857325563515587
5.74970000000000069917, 	 -4.38931946489359781083, 	 -0.31601141622660439134, 	 5.42264301462521736141
5.75079999999999991189, 	 -4.39591337498346224066, 	 -0.31696360799899525595, 	 5.38571111374885891365
5.75190000000000001279, 	 -4.39756882561024564637, 	 -0.31532769716477576649, 	 5.34922399846599283535
5.75300000000000011369, 	 -4.39405218681712295137, 	 -0.31118818418081134469, 	 5.31319197753338823276
5.75410000000000021458, 	 -4.38507802547558256379, 	 -0.30463648755209543628, 	 5.27762451305234758792
5.75520000000000031548, 	 -4.37030379402026003532, 	 -0.29575450368991673677, 	 5.24253020707880335038
5.75630000000000041638, 	 -4.34929939610613658374, 	 -0.28462520341483904529, 	 5.20791679482992186934
5.75740000000000051728, 	 -4.32144514818185232485, 	 -0.27133475821946761997, 	 5.17379114004925799719
5.75850000000000061817, 	 -4.28622606726802057864, 	 -0.25596897629848769373, 	 5.14015923089609749752
5.75960000000000071907, 	 -4.24332497671383634952, 	 -0.23861275946895033062, 	 5.10702617699715144539
5.76069999999999993179, 	 -4.19226290470158424739, 	 -0.21934934698984440149, 	 5.07439622038333659759
5.76180000000000003268, 	 -4.13233041629390029925, 	 -0.19825942097785828611, 	 5.04227281561486684325
5.76290000000000013358, 	 -4.06333858564378846978, 	 -0.17542002053195668299, 	 5.01065881797144907495
5.76400000000000023448, 	 -3.98455613897775906551, 	 -0.15090321753820573614, 	 4.97955664384226004415
5.76510000000000033538, 	 -3.89505546620093223709, 	 -0.12477451255372644379, 	 4.94896817720112824901
5.76620000000000043627, 	 -3.79412645902409062515, 	 -0.09709095118987913497, 	 4.91889439019728325064
5.76730000000000053717, 	 -3.68115865447031120894, 	 -0.06789899828140945337, 	 4.88933490000046155899
5.76840000000000063807, 	 -3.55563321632954654206, 	 -0.03723220318294410969, 	 4.86028773497984101226
5.76949999999999985079, 	 -3.41504656113989968347, 	 -0.00510869239123791421, 	 4.83174943738424289563
5.77059999999999995168, 	 -3.25869546394136744283, 	 0.02847145579876264598, 	 4.80371540869815660812
5.77170000000000005258, 	 -3.08704980471718348767, 	 0.06352888124031173811, 	 4.77618042450968616208
5.77280000000000015348, 	 -2.90095998132943355685, 	 0.10010757709743361987, 	 4.74913896513253419585
5.77390000000000025437, 	 -2.70122269652495194947, 	 0.13827741408385793576, 	 4.72258540982089680682
5.77500000000000035527, 	 -2.48882226071500056719, 	 0.17813648369335827182, 	 4.69651463051907569479
5.77610000000000045617, 	 -2.26324921650458321665, 	 0.21981317006576858719, 	 4.67092212549345386918
5.77720000000000055707, 	 -2.02398677605108634481, 	 0.26346784696387709479, 	 4.64580352854588340961
5.77830000000000065796, 	 -1.77090805318036781379, 	 0.30929416193874542662, 	 4.62115443894967814487
5.77939999999999987068, 	 -1.50399380585198971794, 	 0.35751997217878078716, 	 4.59697099168954714798
5.78049999999999997158, 	 -1.22355426754899054842, 	 0.40840800726085285666, 	 4.57324964197148720046
5.78160000000000007248, 	 -0.93021016517062360407, 	 0.46225620206138834378, 	 4.54998706003018593691
5.78270000000000017337, 	 -0.62448404242461497127, 	 0.51939747253141499428, 	 4.52718077607492119796
5.78380000000000027427, 	 -0.30684371564169210522, 	 0.58019861432278208024, 	 4.50482981306701812940
5.78490000000000037517, 	 0.02220656441226445330, 	 0.64505801972032184022, 	 4.48293444460666545837
5.78600000000000047606, 	 0.36213417984154078200, 	 0.71440203393416468192, 	 4.46149689284971273651
5.78710000000000057696, 	 0.71239013101021908536, 	 0.78867997698951175511, 	 4.44052185483883565809
5.78820000000000067786, 	 1.07241949484045862029, 	 0.86835806769083134782, 	 4.42001733211375391619
5.78929999999999989058, 	 1.44166048837655091930, 	 0.95391262759513484326, 	 4.39999494447286565446
5.79039999999999999147, 	 1.81957066608542428199, 	 1.04582298824744523991, 	 4.38046978911705409132
5.79150000000000009237, 	 2.20568414001108692446, 	 1.14456449654963576812, 	 4.36146180858750476261
5.79260000000000019327, 	 2.59951901187556000394, 	 1.25060196432391235177, 	 4.34299746887152604558
5.79370000000000029416, 	 3.00060928791109837732, 	 1.36438389477131960525, 	 4.32510838477264059065
5.79480000000000039506, 	 3.40852015602156566132, 	 1.48633784567349280792, 	 4.30782828629787406527
5.79590000000000049596, 	 3.82285184457796312074, 	 1.61686735363219846739, 	 4.29120782502163233829
5.79700000000000059686, 	 4.24323937464009137699, 	 1.75635101358972001151, 	 4.27529605157890291167
5.79810000000000069775, 	 4.66935052193797428544, 	 1.90514276535540272306, 	 4.26014429479613543350
5.79919999999999991047, 	 5.10088276578569654873, 	 2.06355433808831278952, 	 4.24582657323390844084
5.80030000000000001137, 	 5.53755958452341090492, 	 2.23152240917401334386, 	 4.23242679251602993418
5.80140000000000011227, 	 5.97912634521172048352, 	 2.40809632244678795132, 	 4.22003590516272275579
5.80250000000000021316, 	 6.42534599635944125851, 	 2.59414020267295519773, 	 4.20875353353520686994
5.80360000000000031406, 	 6.87599474925572717865, 	 2.79011889787365907623, 	 4.19867943195917892041
5.80470000000000041496, 	 7.33085791147375243071, 	 2.99609483915029617407, 	 4.18991799074285253823
5.80580000000000051585, 	 7.78972345655253572971, 	 3.21207317091524835462, 	 4.18257464847345605818
5.80690000000000061675, 	 8.25237637547873781330, 	 3.43800328747344741132, 	 4.17677207555351515111
5.80800000000000071765, 	 8.71861631181885421427, 	 3.67379073463827632295, 	 4.17264328434284870184
5.80909999999999993037, 	 9.18823634904588715244, 	 3.91929851317184851922, 	 4.17032182672880225027
5.81020000000000003126, 	 9.66101936496891511297, 	 4.17435086137413335905, 	 4.16994122870759387212
5.81130000000000013216, 	 10.13673966863626318968, 	 4.43873757027135962261, 	 4.17163515194373601958
5.81240000000000023306, 	 10.61516392408963049832, 	 4.71221824455125393172, 	 4.17553802772976290214
5.81350000000000033396, 	 11.09605172358284796985, 	 4.99452671522808788751, 	 4.18180314684918830181
5.81460000000000043485, 	 11.57915629960213443894, 	 5.28537535808625413836, 	 4.19054837040177741159
5.81570000000000053575, 	 12.06422480193314683561, 	 5.58445920229489178865, 	 4.20186567441684832858
5.81680000000000063665, 	 12.55099913539926070882, 	 5.89145975170562152812, 	 4.21591148324491094002
5.81789999999999984936, 	 13.03921733289370266107, 	 6.20604842806522682963, 	 4.23245454442462243350
5.81899999999999995026, 	 13.52861516081596349181, 	 6.52788957049857643256, 	 4.25072731044199869643
5.82010000000000005116, 	 14.01892778981768827862, 	 6.85664295048457805848, 	 4.27141737116072572888
5.82120000000000015206, 	 14.50989142480724503059, 	 7.19196578195515545673, 	 4.29580703849234790681
5.82230000000000025295, 	 15.00124489400241145631, 	 7.53351422143466464831, 	 4.32351431786431739113
5.82340000000000035385, 	 15.49272798616060953236, 	 7.88094436586568924952, 	 4.35440854291274082044
5.82450000000000045475, 	 15.98408339690413804135, 	 8.23391276972714258875, 	 4.38848376304620924060
5.82560000000000055564, 	 16.47505220426361560726, 	 8.59207651640237557444, 	 4.42579929778671754548
5.82670000000000065654, 	 16.96539206047697945223, 	 8.95509287000089138076, 	 4.46635694543528671829
5.82779999999999986926, 	 17.45487597948783786705, 	 9.32261850740986197650, 	 4.51011400825297403827
5.82889999999999997016, 	 17.94328644721118948269, 	 9.69430836992896693971, 	 4.55703247133186906126
5.83000000000000007105, 	 18.43041032999576600560, 	 10.06981429428671326320, 	 4.60707539447759018003
5.83110000000000017195, 	 18.91603845713328269085, 	 10.44878366775879463546, 	 4.66020132545990595219
5.83220000000000027285, 	 19.39996867089308807408, 	 10.83085831848530666832, 	 4.71636155268625323345
5.83330000000000037375, 	 19.88200185667789554600, 	 11.21567373507400056099, 	 4.77549926455916473600
5.83440000000000047464, 	 20.36194238718072568872, 	 11.60285860074135655395, 	 4.83754974610009647051
5.83550000000000057554, 	 20.83959761689869338852, 	 11.99203457893116286925, 	 4.90233595173590419591
5.83660000000000067644, 	 21.31477725287215818639, 	 12.38281629075072487467, 	 4.96964644428485247118
5.83769999999999988916, 	 21.78729236441464323093, 	 12.77481145015306118751, 	 5.03957747933223920711
5.83879999999999999005, 	 22.25695402134086364754, 	 13.16762114982450881939, 	 5.11210880392214139789
5.83990000000000009095, 	 22.72357180114029873153, 	 13.56084031072397522166, 	 5.18716858039258266189
5.84100000000000019185, 	 23.18695235035781365696, 	 13.95405832030838233493, 	 5.26466643687958324449
5.84210000000000029274, 	 23.64689806894614676480, 	 14.34685989740790468261, 	 5.34450359338136848919
5.84320000000000039364, 	 24.10320591622395980380, 	 14.73882805432456599704, 	 5.42657916751539115552
5.84430000000000049454, 	 24.55566631828076751276, 	 15.12954834751828769868, 	 5.51079923439903840432
5.84540000000000059543, 	 25.00406216106902945739, 	 15.51859098928795610561, 	 5.59707115209039240966
5.84650000000000069633, 	 25.44816786300747679661, 	 15.90553254559645779409, 	 5.68530415504739838894
5.84759999999999990905, 	 25.88774852970622930570, 	 16.28995065267478636883, 	 5.77541257235507288215
5.84870000000000000995, 	 26.32255919921998454925, 	 16.67142614354511209740, 	 5.86731743310587727791
5.84980000000000011084, 	 26.75234418893199617173, 	 17.04954515152073923900, 	 5.96094445932191696613
5.85090000000000021174, 	 27.17683655564341194122, 	 17.42390115457630272999, 	 6.05621838476834373211
5.85200000000000031264, 	 27.59575768791276928482, 	 17.79409692012766797120, 	 6.15306460084165074420
5.85310000000000041354, 	 28.00881729458361490970, 	 18.15974631075867407048, 	 6.25140813214909396578
5.85420000000000051443, 	 28.41571320318376692171, 	 18.52047591167965379100, 	 6.35117495041497726049
5.85530000000000061533, 	 28.81613085077849945037, 	 18.87592644602474933890, 	 6.45229400480838855003
5.85640000000000071623, 	 29.20974342696907655181, 	 19.22575395496150107988, 	 6.55469749208992435996
5.85749999999999992895, 	 29.59621227814418631397, 	 19.56963073290973298413, 	 6.65832029652596446567
5.85860000000000002984, 	 29.97518756278112306290, 	 19.90724601804463844701, 	 6.76309926041701636734
5.85970000000000013074, 	 30.34630892098641297139, 	 20.23830644207993501027, 	 6.86897254180072192042
5.86080000000000023164, 	 30.70920643503917091266, 	 20.56253624409113456295, 	 6.97587912117213715391
5.86190000000000033253, 	 31.06350127410341954715, 	 20.87967725584077882672, 	 7.08375844598876991398
5.86300000000000043343, 	 31.40880650751430280820, 	 21.18948867091595289480, 	 7.19255018372117849168
5.86410000000000053433, 	 31.74472824961882011507, 	 21.49174661464158475610, 	 7.30219405651218966824
5.86520000000000063523, 	 32.07086679627726510944, 	 21.78624353598751639538, 	 7.41262973759697540999
5.86629999999999984794, 	 32.38681766752978319346, 	 22.07278744604684561637, 	 7.52379679581884630579
5.86739999999999994884, 	 32.69217249947261905163, 	 22.35120102922009266422, 	 7.63563467854132316148
5.86850000000000004974, 	 32.98652064765460778517, 	 22.62132065315316609144, 	 7.74808272531732633581
5.86960000000000015064, 	 33.26945149364353682131, 	 22.88299530261153691413, 	 7.86108020553014164022
5.87070000000000025153, 	 33.54055732691946190016, 	 23.13608546090092232816, 	 7.97456637349093533373
5.87180000000000035243, 	 33.79943646754849595482, 	 23.38046196096302509204, 	 8.08848053459031035572
5.87290000000000045333, 	 34.04569619096679389258, 	 23.61600482753575391826, 	 8.20276211629847828988
5.87400000000000055422, 	 34.27895511576805631648, 	 23.84260213101534731095, 	 8.31735073819597481304
5.87510000000000065512, 	 34.49884495125708383512, 	 24.06014887236189636610, 	 8.43218627581330615328
5.87619999999999986784, 	 34.70501485219990911446, 	 24.26854591659249393842, 	 8.54720891383344749670
5.87729999999999996874, 	 34.89712329583326777538, 	 24.46769899051538743606, 	 8.66235918511322822155
5.87840000000000006963, 	 35.07482902752078501862, 	 24.65751775872167073089, 	 8.77757799294919571764
5.87950000000000017053, 	 35.23781503640962142754, 	 24.83791498892043492219, 	 8.89280661499504176959
5.88060000000000027143, 	 35.38579284514633371828, 	 25.00880581480190656407, 	 9.00798668818467973551
5.88170000000000037232, 	 35.51850381514223897739, 	 25.17010710503884496347, 	 9.12306037560066762637
5.88280000000000047322, 	 35.63573326929856932566, 	 25.32173694813430131489, 	 9.23797100675677995696
5.88390000000000057412, 	 35.73728220301656932634, 	 25.46361426009612927146, 	 9.35266173657666044505
5.88500000000000067502, 	 35.82294654591319726933, 	 25.59565852157247078935, 	 9.46707537555102796034
5.88609999999999988773, 	 35.89253369164134710445, 	 25.71778965001922756528, 	 9.58115264408436928534
5.88719999999999998863, 	 35.94587583334266156498, 	 25.82992801091424794890, 	 9.69483455207852351521
5.88830000000000008953, 	 35.98283611024461237093, 	 25.93199457521104989155, 	 9.80806287274303834067
5.88940000000000019043, 	 36.00331199109985647056, 	 26.02391140520725443253, 	 9.92077978245228209175
5.89050000000000029132, 	 36.00723583163473051627, 	 26.10560566550754302284, 	 10.03292783598823589841
5.89160000000000039222, 	 35.99457362627431677993, 	 26.17699850365871228064, 	 10.14444906623387332445
5.89270000000000049312, 	 35.96532303510350203624, 	 26.23801567695019087978, 	 10.25528456206815519636
5.89380000000000059401, 	 35.91951132592553364020, 	 26.28858496037867453765, 	 10.36537510475857537529
5.89490000000000069491, 	 35.85719350468009025690, 	 26.32863760662780094890, 	 10.47466100460583682263
5.89599999999999990763, 	 35.77845068290672259081, 	 26.35810927191124264368, 	 10.58308124030772567892
5.89710000000000000853, 	 35.68336986442440661449, 	 26.37694087798876907414, 	 10.69057312328492592712
5.89820000000000010942, 	 35.57165473171803427022, 	 26.38507940104313931329, 	 10.79707249933640866857
5.89930000000000021032, 	 35.44424165167985307789, 	 26.38247858398644041245, 	 10.90251406700838110453
5.90040000000000031122, 	 35.30182987888579049240, 	 26.36909958034877377031, 	 11.00683162526797609360
5.90150000000000041211, 	 35.14548217550810704779, 	 26.34491124135470840883, 	 11.10995822040764480221
5.90260000000000051301, 	 34.97463844865824000863, 	 26.30981687840462512895, 	 11.21182622157600583535
5.90370000000000061391, 	 34.78903321128569814391, 	 26.26385759416201182148, 	 11.31236736379669949315
5.90480000000000071481, 	 34.58865290730096830885, 	 26.20720985447014683700, 	 11.41151278863789819695
5.90589999999999992752, 	 34.37363067616009004723, 	 26.13970938118009357254, 	 11.50919310103747861262
5.90700000000000002842, 	 34.14417392072056145480, 	 26.06138239687527402566, 	 11.60533845156284371569
5.90810000000000012932, 	 33.90052557424036905331, 	 25.97225782184348119586, 	 11.69987864743940342294
5.90920000000000023022, 	 33.64300767598518859813, 	 25.87237659646457288432, 	 11.79274329180785763072
5.91030000000000033111, 	 33.37199477815613590792, 	 25.76179187323273112042, 	 11.88386194195069300861
5.91140000000000043201, 	 33.08774112725563298909, 	 25.64056991308996558132, 	 11.97316517231624466433
