x [cm], 	 0.69214285714285717077, 	 48.45000000000000284217, 	 96.20785714285715073402
0.00000000000000000000, 	 0.00000000000000000000, 	 0.00000000000000000000, 	 0.00000000000000000000
5.70020000000000059970, 	 0.64401765347005535123, 	 2.01447965695422936960, 	 3.41929554624425602327
5.70130000000000070060, 	 0.66697194607567877878, 	 2.02085954788056954001, 	 3.40791952781852769405
5.70239999999999991331, 	 0.69008317489566639580, 	 2.02746505055478110080, 	 3.39672767850241408283
5.70350000000000001421, 	 0.71332756398867547265, 	 2.03428779712219265363, 	 3.38571968250057331318
5.70460000000000011511, 	 0.73668107531384863229, 	 2.04131878373643038671, 	 3.37489508937417204137
5.70570000000000021600, 	 0.76011937165773901803, 	 2.04854837377462573045, 	 3.36425306669698542805
5.70680000000000031690, 	 0.78361782151764070026, 	 2.05596629992943835674, 	 3.35379253236158803020
5.70790000000000041780, 	 0.80715163828541280910, 	 2.06356167515866184559, 	 3.34351242880793675383
5.70900000000000051870, 	 0.83069570631211619993, 	 2.07132299730525293313, 	 3.33341168626155281984
5.71010000000000061959, 	 0.85422459916083015585, 	 2.07923815518008625602, 	 3.32348915494761865119
5.71119999999999983231, 	 0.87771283104462016755, 	 2.08729445340415509236, 	 3.31374363344335742809
5.71229999999999993321, 	 0.90113510437917865303, 	 2.09547862339030954715, 	 3.30417364204282515416
5.71340000000000003411, 	 0.92446689132685577750, 	 2.10377683569846052336, 	 3.29477730446290228983
5.71450000000000013500, 	 0.94768558819686887773, 	 2.11217472201902634055, 	 3.28555244521934541879
5.71560000000000023590, 	 0.97077290192290399684, 	 2.12065740758305221192, 	 3.27649651414558729101
5.71670000000000033680, 	 0.99371879657051331858, 	 2.12920957022652279633, 	 3.26760698937561766542
5.71780000000000043769, 	 1.01652734353406737355, 	 2.13781550308792933635, 	 3.25888102597284712303
5.71890000000000053859, 	 1.03922444524405355182, 	 2.14645921278846785185, 	 3.25031582193429535721
5.72000000000000063949, 	 1.06186699267619522047, 	 2.15512464797013780782, 	 3.24190832890802882460
5.72109999999999985221, 	 1.08455250315735862721, 	 2.16379607855680378137, 	 3.23365528964064496975
5.72219999999999995310, 	 1.10742798116625817961, 	 2.17245867333736741855, 	 3.22555328436988997254
5.72330000000000005400, 	 1.13069712416090784046, 	 2.18109935793353670874, 	 3.21759876929620691755
5.72440000000000015490, 	 1.15462472798731363710, 	 2.18970801846226015286, 	 3.20978810433954953041
5.72550000000000025580, 	 1.17953833850076872380, 	 2.19827908287329831793, 	 3.20211758077154184932
5.72660000000000035669, 	 1.20582646563187090294, 	 2.20681347411328587782, 	 3.19458346662509562464
5.72770000000000045759, 	 1.23393252421879684455, 	 2.21532091875726067087, 	 3.18718208761356169845
5.72880000000000055849, 	 1.26434401684025599089, 	 2.22382253716339306493, 	 3.17990995828292399850
5.72990000000000065938, 	 1.29759669853105119586, 	 2.23235359659218746131, 	 3.17276397494121509268
5.73099999999999987210, 	 1.33424834442657958000, 	 2.24096627219295418953, 	 3.16574167902104930405
5.73209999999999997300, 	 1.37486934769066992956, 	 2.24973231034248888349, 	 3.15884159623420579521
5.73320000000000007390, 	 1.42003791279101232448, 	 2.25874546560947386808, 	 3.15206365249495235048
5.73430000000000017479, 	 1.47030232894393653176, 	 2.26812351573733650412, 	 3.14540966216662587485
5.73540000000000027569, 	 1.52595219362002443297, 	 2.27800972485608976825, 	 3.13888387864587059539
5.73650000000000037659, 	 1.58936738047451364686, 	 2.28857368152110218773, 	 3.13249359188256937259
5.73760000000000047748, 	 1.65859721852012209631, 	 2.30001141041495360540, 	 3.12624975201074040143
5.73870000000000057838, 	 1.73251729617895056101, 	 2.31254607503827758208, 	 3.12016759369269314206
5.73980000000000067928, 	 1.81463836157936175830, 	 2.32642998088668528922, 	 3.11426723297558094572
5.74089999999999989200, 	 1.90527518488686831155, 	 2.34193525934489477081, 	 3.10857417174353356515
5.74199999999999999289, 	 2.00451611514889371790, 	 2.35934378404289502029, 	 3.10311985200619888658
5.74310000000000009379, 	 2.11261686306851270700, 	 2.37895291408225961760, 	 3.09794210606826059262
5.74420000000000019469, 	 2.22981696853028044103, 	 2.40108109673134784146, 	 3.09308525672185252731
5.74530000000000029559, 	 2.35620749971621989971, 	 2.42606645389560648951, 	 3.08860004176505764661
5.74640000000000039648, 	 2.49187458496418967613, 	 2.45426225778527440369, 	 3.08454323709994104874
5.74750000000000049738, 	 2.63692797988394733721, 	 2.48603134811810244642, 	 3.08097793168667388741
5.74860000000000059828, 	 2.79150277827523529695, 	 2.52174053870825076729, 	 3.07797316597695624907
5.74970000000000069917, 	 2.95564796318999878366, 	 2.56175559015948239860, 	 3.07560350377253577392
5.75079999999999991189, 	 3.12933658003604930897, 	 2.60643702576612756872, 	 3.07395066605221511935
5.75190000000000001279, 	 3.31250630274138968545, 	 2.65613665725355341252, 	 3.07309290222876319021
5.75300000000000011369, 	 3.50507336512365208492, 	 2.71116435369877040173, 	 3.07311509763247725502
5.75410000000000021458, 	 3.70695294169980593679, 	 2.77176802711523073697, 	 3.07411138692726160215
5.75520000000000031548, 	 3.91803705146547498472, 	 2.83827494684406067549, 	 3.07617910989425658030
5.75630000000000041638, 	 4.13819305615560661948, 	 2.91100124069341559263, 	 3.07941714718259884620
5.75740000000000051728, 	 4.36726432206393333502, 	 2.99021170329941821109, 	 3.08392486957009248627
5.75850000000000061817, 	 4.60507298640979190196, 	 3.07613884305791485119, 	 3.08980027767272202865
5.75960000000000071907, 	 4.85141968439792137247, 	 3.16898832017425657881, 	 3.09675028734223589666
5.76069999999999993179, 	 5.10607888354963090904, 	 3.26893780162791536270, 	 3.10419423932748550499
5.76180000000000003268, 	 5.36880561661884847524, 	 3.37613555415404187343, 	 3.11284660781292998877
5.76290000000000013358, 	 5.63932320176650403454, 	 3.49069742946776884196, 	 3.12417970185737470246
5.76400000000000023448, 	 5.91735685764896590655, 	 3.61270335572350687059, 	 3.13889064715775178982
5.76510000000000033538, 	 6.20262522248455638874, 	 3.74220002310186661276, 	 3.15585698615390786159
5.76620000000000043627, 	 6.49483633060113607627, 	 3.87920934116566229477, 	 3.17473147809807620945
5.76730000000000053717, 	 6.79368750897715134585, 	 4.02373231093582717222, 	 3.19524041349681775515
5.76840000000000063807, 	 7.09886593279342026364, 	 4.17574451809164504112, 	 3.21770331560738087617
5.76949999999999985079, 	 7.41004904652271800813, 	 4.33518996139874790430, 	 3.24230666229792019450
5.77059999999999995168, 	 7.72690319246384671459, 	 4.50197787244166391929, 	 3.26914392969356981666
5.77170000000000005258, 	 8.04908621678089808427, 	 4.67598379541102104895, 	 3.29815985919040777219
5.77280000000000015348, 	 8.37625141646631554693, 	 4.85705240679948246907, 	 3.32933800766641763147
5.77390000000000025437, 	 8.70804450464257584485, 	 5.04500011747172116827, 	 3.36274520688869005269
5.77500000000000035527, 	 9.04410350304686794232, 	 5.23961660945573548531, 	 3.39845541176408261208
5.77610000000000045617, 	 9.38405910214016891757, 	 5.44066606240639316638, 	 3.43651887352679841214
5.77720000000000055707, 	 9.72753551253337711557, 	 5.64788888399530630835, 	 3.47696028880701524244
5.77830000000000065796, 	 10.07415099075215181301, 	 5.86100366955361451460, 	 3.51979220108962564950
5.77939999999999987068, 	 10.42351824307765539857, 	 6.07970917966235191443, 	 3.56501323576936268722
5.78049999999999997158, 	 10.77524476264948027904, 	 6.30368625303175367236, 	 3.61257937251851002358
5.78160000000000007248, 	 11.12893307538930898204, 	 6.53259948575009197214, 	 3.66245319686947601312
5.78270000000000017337, 	 11.48418076867681669739, 	 6.76609872664899913985, 	 3.71461011166168564301
5.78380000000000027427, 	 11.84057925043187786684, 	 7.00382040213472123469, 	 3.76903049854912408634
5.78490000000000037517, 	 12.19771839672379165620, 	 7.24538890997652362813, 	 3.82569236410150237404
5.78600000000000047606, 	 12.55518377694020593083, 	 7.49041819404207753763, 	 3.88456826226223395082
5.78710000000000057696, 	 12.91255809079978433829, 	 7.73851342234539352205, 	 3.94562294222798337628
5.78820000000000067786, 	 13.26942146967847335759, 	 7.98927263586350200342, 	 4.00881324830433616313
5.78929999999999989058, 	 13.62535159724172828533, 	 8.24228832929740384827, 	 4.07408953054636047142
5.79039999999999999147, 	 13.97992420205650176968, 	 8.49714895580125606500, 	 4.14139757781398820669
5.79150000000000009237, 	 14.33271250011440400840, 	 8.75344038952674985410, 	 4.21067909825675279478
5.79260000000000019327, 	 14.68329083809046409215, 	 9.01074732306285852701, 	 4.28187212805740724519
5.79370000000000029416, 	 15.03123452549925787025, 	 9.26865459415824410883, 	 4.35491139702917262611
5.79480000000000039506, 	 15.37611824327079013131, 	 9.52674838995161721300, 	 4.42972864923111409041
5.79590000000000049596, 	 15.71752041428858781558, 	 9.78461740324936535274, 	 4.50625292488119999490
5.79700000000000059686, 	 16.05502245367382130325, 	 10.04185397338206442441, 	 4.58441081250593285290
5.79810000000000069775, 	 16.38820976159568232333, 	 10.29805520363576931686, 	 4.66412667903895972188
5.79919999999999991047, 	 16.71667358412343062923, 	 10.55282434445252448540, 	 4.74532309796177820260
5.80030000000000001137, 	 17.04001212906586104623, 	 10.80577306872198661836, 	 4.82792084962584500119
5.80140000000000011227, 	 17.35783115629617157083, 	 11.05652577374969425250, 	 4.91183875090668031760
5.80250000000000021316, 	 17.66974477373272733871, 	 11.30470585348786727309, 	 4.99699431131815163809
5.80360000000000031406, 	 17.97537644691601599334, 	 11.54993651239827556765, 	 5.08330426083443942531
5.80470000000000041496, 	 18.27435970410649446194, 	 11.79186134696582399783, 	 5.17068385273416097903
5.80580000000000051585, 	 18.56633926534695078203, 	 12.03013483949088424652, 	 5.25904744244731059410
5.80690000000000061675, 	 18.85097316085859020518, 	 12.26442276759196658986, 	 5.34830962037756130201
5.80800000000000071765, 	 19.12793188679763289883, 	 12.49440315336614837349, 	 5.43838468557522514146
5.80909999999999993037, 	 19.39689842471181080441, 	 12.71976639843285106224, 	 5.52918519777883510358
5.81020000000000003126, 	 19.65756948784894930782, 	 12.94021574251043915638, 	 5.62062286281482492711
5.81130000000000013216, 	 19.90965701129427856131, 	 13.15546769615440680923, 	 5.71260906779729538130
5.81240000000000023306, 	 20.15288934895016481619, 	 13.36525259821813094163, 	 5.80505467707646616304
5.81350000000000033396, 	 20.38701208362457961698, 	 13.56931502322626492685, 	 5.89787110280960025221
5.81460000000000043485, 	 20.61178854182998776423, 	 13.76741401631464256639, 	 5.99097062484645181968
5.81570000000000053575, 	 20.82700014687229383981, 	 13.95932334309088318491, 	 6.08426639026605897698
5.81680000000000063665, 	 21.03244673273033882310, 	 14.14483174283598287957, 	 6.17767241697129865230
5.81789999999999984936, 	 21.22794664098381645090, 	 14.32374316777287681646, 	 6.27110363875775700393
5.81899999999999995026, 	 21.41333686121776125333, 	 14.49587699742443192008, 	 6.36447598579078732683
5.82010000000000005116, 	 21.58847320135712166689, 	 14.66106821907874113720, 	 6.45770648920553735906
5.82120000000000015206, 	 21.75323041434437598696, 	 14.81916756788103661791, 	 6.55071358682053084266
5.82230000000000025295, 	 21.90750226567551806056, 	 14.97004162468696542021, 	 6.64342174189008982665
5.82340000000000035385, 	 22.05120156895415206577, 	 15.11357287349333589077, 	 6.73575288351017853472
5.82450000000000045475, 	 22.18426030696260653485, 	 15.24965971250104423973, 	 6.82762029006763881966
5.82560000000000055564, 	 22.30662866374004593695, 	 15.37821643774803881399, 	 6.91893960669222884974
5.82670000000000065654, 	 22.41827840624023693294, 	 15.49917316869004757507, 	 7.00963339352051484354
5.82779999999999986926, 	 22.51918647045082977343, 	 15.61247569100272336584, 	 7.09963051566068781284
5.82889999999999997016, 	 22.60935016858043411503, 	 15.71808525964766012351, 	 7.18886425121258376691
5.83000000000000007105, 	 22.68879785579822794261, 	 15.81597844860711354897, 	 7.27727076077013457223
5.83110000000000017195, 	 22.75757355545026427990, 	 15.90614693494542031260, 	 7.36478824086938388405
5.83220000000000027285, 	 22.81573593565542878991, 	 15.98859716782367890175, 	 7.45135663009787485578
5.83330000000000037375, 	 22.86335875690496166612, 	 16.06335007557945360190, 	 7.53691769622222551561
5.83440000000000047464, 	 22.90053140170578060975, 	 16.13044080216177889042, 	 7.62141509728599331197
5.83550000000000057554, 	 22.92735913399863534323, 	 16.18991838081447909303, 	 7.70479458652590309953
5.83660000000000067644, 	 22.94396350641462944964, 	 16.24184541937048820159, 	 7.78700426961077329935
5.83769999999999988916, 	 22.95048299788306422897, 	 16.28629817426648074274, 	 7.86799484787831637789
5.83879999999999999005, 	 22.94706886953637692272, 	 16.32336364422743812952, 	 7.94771966713465349841
5.83990000000000009095, 	 22.93388338001057746851, 	 16.35314107257822868746, 	 8.02613488979768874287
5.84100000000000019185, 	 22.91109924448025481070, 	 16.37574233325057093680, 	 8.10319964326250818942
5.84210000000000029274, 	 22.87889908954499063043, 	 16.39129014093716207867, 	 8.17887613310368699615
5.84320000000000039364, 	 22.83747526970608276997, 	 16.39991806277485153487, 	 8.25312943318423108963
5.84430000000000049454, 	 22.78702986560440280073, 	 16.40176960577689158072, 	 8.32592721321271866941
5.84540000000000059543, 	 22.72777447111204907060, 	 16.39699761550589940384, 	 8.39723976075792144513
5.84650000000000069633, 	 22.65992964361200989742, 	 16.38576367430104241407, 	 8.46704014831163220833
5.84759999999999990905, 	 22.58372411619788167059, 	 16.36823744606625297138, 	 8.53530432845444941847
5.84870000000000000995, 	 22.49939392329095966261, 	 16.34459600450988148168, 	 8.60201115496272095129
5.84980000000000011084, 	 22.40718024687141962659, 	 16.31502316022221066305, 	 8.66714235804280619391
5.85090000000000021174, 	 22.30731026076247047740, 	 16.27970870354809562741, 	 8.73068249408077790008
5.85200000000000031264, 	 22.20004813173576962981, 	 16.23884536678649581631, 	 8.79261888048425532816
5.85310000000000041354, 	 22.08562145443126567557, 	 16.19262375673728726611, 	 8.85294152040832749151
5.85420000000000051443, 	 21.96422698624523661692, 	 16.14124198779488139621, 	 8.91164301152430482489
5.85530000000000061533, 	 21.83611771653534816551, 	 16.08497110856037792814, 	 8.96871840329309399920
5.85640000000000071623, 	 21.70158704842958385939, 	 16.02398344896148429939, 	 9.02416499068488597857
5.85749999999999992895, 	 21.56092727094004857236, 	 15.95848480157714632810, 	 9.07798215151786003219
5.85860000000000002984, 	 21.41447529827335216623, 	 15.88868280337230309840, 	 9.13017142810674720010
5.85970000000000013074, 	 21.26256299814614081356, 	 15.81479120480107525282, 	 9.18073653396576183638
5.86080000000000023164, 	 21.10549021673014635780, 	 15.73702360850152892624, 	 9.22968324992950073238
5.86190000000000033253, 	 20.94353079952477258985, 	 15.65559382980946878661, 	 9.27701972270329910941
5.86300000000000043343, 	 20.77694339453804417417, 	 15.57071556172305903942, 	 9.32275627981571552994
5.86410000000000053433, 	 20.60597925823742215812, 	 15.48260209061779590911, 	 9.36690518856271303605
5.86520000000000063523, 	 20.43088624143967990676, 	 15.39146576157645007754, 	 9.40948042559340258606
5.86629999999999984794, 	 20.25190971016575858243, 	 15.29751728854960646231, 	 9.45049736671318463266
5.86739999999999994884, 	 20.06929578900673760700, 	 15.20096499566693459826, 	 9.48997280030324041888
5.86850000000000004974, 	 19.88328897443425091751, 	 15.10201407992812683290, 	 9.52792490159607829980
5.86960000000000015064, 	 19.69413109816968088239, 	 15.00086598568167417511, 	 9.56437280858522775873
5.87070000000000025153, 	 19.50206070390844814710, 	 14.89771784036289403730, 	 9.59933647748744967032
5.87180000000000035243, 	 19.30731244633478382866, 	 14.79276197191605035641, 	 9.63283769146934965022
5.87290000000000045333, 	 19.11011608156398366987, 	 14.68618551997684917865, 	 9.66490076582059920440
5.87400000000000055422, 	 18.91069661689374825642, 	 14.57817004771230351423, 	 9.69554933623047610070
5.87510000000000065512, 	 18.70926984959580963164, 	 14.46889130486049523938, 	 9.72480567645807703059
5.87619999999999986784, 	 18.50607145502131345438, 	 14.35851892942926610885, 	 9.75269189785363366241
5.87729999999999996874, 	 18.30135074364998004626, 	 14.24721627141211222067, 	 9.77923090465979427677
5.87840000000000006963, 	 18.09531655114081871716, 	 14.13514021458757774496, 	 9.80444690872487711886
5.87950000000000017053, 	 17.88815429198440298819, 	 14.02244107428064268106, 	 9.82836533778839438469
5.88060000000000027143, 	 17.68003837768725361457, 	 13.90926262754094189233, 	 9.85101260334677597541
5.88170000000000037232, 	 17.47113750485401695300, 	 13.79574205593467084441, 	 9.87241730638566394873
5.88280000000000047322, 	 17.26161620672732155413, 	 13.68200977501710546846, 	 9.89260611310250581596
5.88390000000000057412, 	 17.05163348713445969906, 	 13.56818925914851270420, 	 9.91160473332035429905
5.88500000000000067502, 	 16.84134542029348935444, 	 13.45439698143736961811, 	 9.92943950200455383026
5.88609999999999988773, 	 16.63090263690250836248, 	 13.34074232843117258085, 	 9.94613692755067013707
5.88719999999999998863, 	 16.42044964631662296028, 	 13.22732751008724960684, 	 9.96172326815749542561
5.88830000000000008953, 	 16.21012441936765213768, 	 13.11424754349875776427, 	 9.97622443247519896659
5.88940000000000019043, 	 16.00005791960582968159, 	 13.00159031507979179310, 	 9.98966544651687726741
5.89050000000000029132, 	 15.79037404300142277691, 	 12.88943670839845090370, 	 10.00207058926058145687
5.89160000000000039222, 	 15.58118939062993568712, 	 12.77786070007714158692, 	 10.01346389116159762978
5.89270000000000049312, 	 15.37261380075321248739, 	 12.66693140001358486302, 	 10.02386893962028580063
5.89380000000000059401, 	 15.16475101692521754160, 	 12.55670862851275160210, 	 10.03330875194137128403
5.89490000000000069491, 	 14.95769548598880405166, 	 12.44724558787397938886, 	 10.04180638761207511322
5.89599999999999990763, 	 14.75153386535952293457, 	 12.33859011099744229512, 	 10.04938412248424128848
5.89710000000000000853, 	 14.54634980358123641508, 	 12.23078390018543082363, 	 10.05606341236569001296
5.89820000000000010942, 	 14.34222102923065733648, 	 12.12386281047042047021, 	 10.06186422091933430067
5.89930000000000021032, 	 14.13921841839921711426, 	 12.01785708956954756843, 	 10.06680658761032631787
5.90040000000000031122, 	 13.93745925482327763234, 	 11.91279161869186609124, 	 10.07090841012135484789
5.90150000000000041211, 	 13.73706220418177892384, 	 11.80868611889814268068, 	 10.07419178582360963503
5.90260000000000051301, 	 13.53805103158470224400, 	 11.70555542674036786366, 	 10.07667856706196474192
5.90370000000000061391, 	 13.34044244960774072695, 	 11.60340991636242513607, 	 10.07838444565126501118
5.90480000000000071481, 	 13.14425516995171960843, 	 11.50225596511884340600, 	 10.07932392406759092296
5.90589999999999992752, 	 12.94950987741762737926, 	 11.40209623829340124246, 	 10.07951109864232286384
5.90700000000000002842, 	 12.75622851591322159948, 	 11.30292973638744413734, 	 10.07895978686388005485
5.90810000000000012932, 	 12.56443123014685703254, 	 11.20475177360107821301, 	 10.07768345726409719987
5.90920000000000023022, 	 12.37413549661741463126, 	 11.10755401002552034129, 	 10.07569518281674447735
5.91030000000000033111, 	 12.18535545081610749207, 	 11.01132457310011503182, 	 10.07300767898868265604
5.91140000000000043201, 	 11.99809931315156497078, 	 10.91604826653021831362, 	 10.06963325182918289613
