x [cm], 	 0.25592592592592589007, 	 34.54999999999999715783, 	 68.84407407407405798949
0.00000000000000000000, 	 0.00000000000000000000, 	 0.00000000000000000000, 	 0.00000000000000000000
5.70020000000000059970, 	 2.82099498838585382998, 	 10.70901857165008941308, 	 20.62169420115891327328
5.70130000000000070060, 	 2.61806482297887299637, 	 10.58057383441394350143, 	 20.57305642181024651904
5.70239999999999991331, 	 2.42059804112821730371, 	 10.45431727495391172056, 	 20.52424117673269066131
5.70350000000000001421, 	 2.22881791227576631087, 	 10.33023330006242801460, 	 20.47524839350419867401
5.70460000000000011511, 	 2.04341204583780378101, 	 10.20830967706248948446, 	 20.42607785437037293264
5.70570000000000021600, 	 1.86662091365833826551, 	 10.08853773563837386007, 	 20.37672938829522095716
5.70680000000000031690, 	 1.70340229549426425137, 	 9.97091253822419432140, 	 20.32720295867398263567
5.70790000000000041780, 	 1.56162812546831819560, 	 9.85543301891889989008, 	 20.27749868977165448314
5.70900000000000051870, 	 1.45081207955734092785, 	 9.74210209105094904203, 	 20.22761689327141709782
5.71010000000000061959, 	 1.38013747794014585146, 	 9.63092672373653257978, 	 20.17755811616321892643
5.71119999999999983231, 	 1.35772622258709985132, 	 9.52191798886050122519, 	 20.12732331135772412267
5.71229999999999993321, 	 1.39265531698833266994, 	 9.41509108565486307896, 	 20.07691386323153537319
5.71340000000000003411, 	 1.46817761879196218011, 	 9.31046537162318976755, 	 20.02633157280153497481
5.71450000000000013500, 	 1.57624089729417460326, 	 9.20806448682456490928, 	 19.97557873774476533413
5.71560000000000023590, 	 1.72111107104469684970, 	 9.10791677600791871328, 	 19.92465825202724261089
5.71670000000000033680, 	 1.89402662890079587221, 	 9.01005639314359463299, 	 19.87357366184802387465
5.71780000000000043769, 	 2.09013511879885172107, 	 8.91452567882651614184, 	 19.82232922153083976013
5.71890000000000053859, 	 2.30534114528563538471, 	 8.82137955558217434771, 	 19.77092998683125202319
5.72000000000000063949, 	 2.53686981107912590261, 	 8.73069269654177482209, 	 19.71938182429234132087
5.72109999999999985221, 	 2.78315570417092539302, 	 8.64256999865658848137, 	 19.66769142158515748520
5.72219999999999995310, 	 3.04336937589590394992, 	 8.55716037780936744639, 	 19.61586625626899760277
5.72330000000000005400, 	 3.31717691433834405146, 	 8.47467317338682057937, 	 19.56391460370083024145
5.72440000000000015490, 	 3.60456173104215293890, 	 8.39539570619509589733, 	 19.51184558530968260470
5.72550000000000025580, 	 3.90547121600249624862, 	 8.31970998287135721228, 	 19.45966921267097760051
5.72660000000000035669, 	 4.21979297384628448953, 	 8.24810632139572774690, 	 19.40739641363646228456
5.72770000000000045759, 	 4.54735538436552122477, 	 8.18119189204916352764, 	 19.35503906774208005004
5.72880000000000055849, 	 4.88795950974171855563, 	 8.11969699843596615096, 	 19.30261002929066549427
5.72990000000000065938, 	 5.24141418396438929506, 	 8.06448190127947128758, 	 19.25012311312262269780
5.73099999999999987210, 	 5.60755009138087512355, 	 8.01650620460240759257, 	 19.19759310643508243288
5.73209999999999997300, 	 5.98621434280629838298, 	 7.97681359719084959181, 	 19.14503572307248546736
5.73320000000000007390, 	 6.37724827271038030574, 	 7.94651121313640995680, 	 19.09246765873496798349
5.73430000000000017479, 	 6.78048770519594956596, 	 7.92674361559338969130, 	 19.03990667012526927238
5.73540000000000027569, 	 7.19571370080640182465, 	 7.91866961787042988874, 	 18.98737192814293450738
5.73650000000000037659, 	 7.62262575153321364496, 	 7.92325840012503057608, 	 18.93488419557761304191
5.73760000000000047748, 	 8.06083164503864502137, 	 7.94150502602758123771, 	 18.88246606313486353201
5.73870000000000057838, 	 8.50985036793471749661, 	 7.97442121388373781343, 	 18.83014246664069801795
5.73980000000000067928, 	 8.96912883771589797277, 	 8.02285454922642848885, 	 18.77794125163714866744
5.74089999999999989200, 	 9.43806798205757857545, 	 8.08753998277084207302, 	 18.72589410466296655500
5.74199999999999999289, 	 9.91605172595762418553, 	 8.16908902814608062215, 	 18.67403753483695538762
5.74310000000000009379, 	 10.40247285239845709270, 	 8.26798554070002644778, 	 18.62241412844900168011
5.74420000000000019469, 	 10.89675197565209607831, 	 8.38458585301517977939, 	 18.57107342439905650622
5.74530000000000029559, 	 11.39834852897234007685, 	 8.51912272632722178400, 	 18.52007332718947196781
5.74640000000000039648, 	 11.90676487934411120762, 	 8.67171241315393004356, 	 18.46948141081798766550
5.74750000000000049738, 	 12.42154504299285022739, 	 8.84236407004999414028, 	 18.41937586060511122810
5.74860000000000059828, 	 12.94227043077891181611, 	 9.03099077824028206862, 	 18.36984710589598890351
5.74970000000000069917, 	 13.46855503093951433868, 	 9.23742143706849994089, 	 18.32099963786086860296
5.75079999999999991189, 	 14.00004094648149077784, 	 9.46141297817797166658, 	 18.27295208214204791375
5.75190000000000001279, 	 14.53639460226011514976, 	 9.70266220534572454426, 	 18.22583726975412332649
5.75300000000000011369, 	 15.07730468970709480914, 	 9.96081699357567629249, 	 18.17980046523159387561
5.75410000000000021458, 	 15.62247924490893780103, 	 10.23548644134331198075, 	 18.13499810808112755467
5.75520000000000031548, 	 16.17164003164047869632, 	 10.52624869689580044962, 	 18.09159742124537118002
5.75630000000000041638, 	 16.72452656210980492801, 	 10.83263587896314206205, 	 18.04977489955378544551
5.75740000000000051728, 	 17.28088925097986461310, 	 11.15385987872105211238, 	 18.00971360221820560810
5.75850000000000061817, 	 17.84048749671409694884, 	 11.48953216072758110045, 	 17.97160460271729220949
5.75960000000000071907, 	 18.40309054149375356246, 	 11.83946179916676300081, 	 17.93564245681865187976
5.76069999999999993179, 	 18.96847880314912160316, 	 12.20322862025402876895, 	 17.90202294616890910106
5.76180000000000003268, 	 19.53644481564329282719, 	 12.58035984540913077012, 	 17.87093890643839344534
5.76290000000000013358, 	 20.10679387522949923550, 	 12.97036687785636388526, 	 17.84257754447858701496
5.76400000000000023448, 	 20.67934474158187896364, 	 13.37276539689317189641, 	 17.81711920712436736380
5.76510000000000033538, 	 21.25393057365591786834, 	 13.78707263048865172550, 	 17.79473462870721789386
5.76620000000000043627, 	 21.83040002000769419510, 	 14.21280757104807079827, 	 17.77558252453120246628
5.76730000000000053717, 	 22.40861821924356434010, 	 14.64949131096473422531, 	 17.75980828493469232399
5.76840000000000063807, 	 22.98846743784726953663, 	 15.09664689666622194864, 	 17.74754105488106858957
5.76949999999999985079, 	 23.56984719329652833153, 	 15.55379919706857272388, 	 17.73889412792271969010
5.77059999999999995168, 	 24.15267385966779301043, 	 16.02047481279613094785, 	 17.73396351708316487361
5.77170000000000005258, 	 24.73687946925319991465, 	 16.49620195156474267151, 	 17.73282939509383382415
5.77280000000000015348, 	 25.32241096020448267723, 	 16.98051031176878211681, 	 17.73555437512983701254
5.77390000000000025437, 	 25.90922957502565893151, 	 17.47293097433734843094, 	 17.74218084480236967693
5.77500000000000035527, 	 26.49730858609641259704, 	 17.97299628432222817764, 	 17.75273324819527687168
5.77610000000000045617, 	 27.08663179542983101555, 	 18.48023972125290370627, 	 17.76721866978275699012
5.77720000000000055707, 	 27.67719201265652984034, 	 18.99419574994235659915, 	 17.78562950007889753579
5.77830000000000065796, 	 28.26898949842847841296, 	 19.51439964681757288645, 	 17.80794479579483891030
5.77939999999999987068, 	 28.86203065640311393736, 	 20.04038730521871869428, 	 17.83356038459156778231
5.78049999999999997158, 	 29.45632685623817081932, 	 20.57169502622020829108, 	 17.85860628115986159514
5.78160000000000007248, 	 30.05189335172114439843, 	 21.10785930722808600990, 	 17.88656068955982192392
5.78270000000000017337, 	 30.64874827907273768801, 	 21.64841664400616494390, 	 17.92225340292375435070
5.78380000000000027427, 	 31.24691173012610434512, 	 22.19290336465471824567, 	 17.96462716814647819774
5.78490000000000037517, 	 31.84640531077789304959, 	 22.74085551590990661452, 	 18.01120797346060697919
5.78600000000000047606, 	 32.44724955509521890917, 	 23.29180882201944413623, 	 18.06176803791559848378
5.78710000000000057696, 	 33.04945207218142400052, 	 23.84529873409276845564, 	 18.11430487695588098518
5.78820000000000067786, 	 33.65301568416779076642, 	 24.40086058035731042537, 	 18.16931502607220494383
5.78929999999999989058, 	 34.25795011373009657518, 	 24.95802981498342276723, 	 18.22725524502409299998
5.79039999999999999147, 	 34.86427148315072344076, 	 25.51634235822573870678, 	 18.28829890797906188027
5.79150000000000009237, 	 35.47199863549692366860, 	 26.07533503684139475354, 	 18.35241726022552555264
5.79260000000000019327, 	 36.08114926123187871099, 	 26.63454616037295252795, 	 18.41949552022441238819
5.79370000000000029416, 	 36.69173655655379917562, 	 27.19351628042317159384, 	 18.48940144594681811441
5.79480000000000039506, 	 37.30376697016725273670, 	 27.75178916353563707275, 	 18.56200269378511080731
5.79590000000000049596, 	 37.91723895693054657841, 	 28.30890875670722905966, 	 18.63698533787356126368
5.79700000000000059686, 	 38.53214223496739521124, 	 28.86442179218234471705, 	 18.71418874242223395754
5.79810000000000069775, 	 39.14845713214353395415, 	 29.41789689700803478445, 	 18.79362263135895361188
5.79919999999999991047, 	 39.76615395648364881254, 	 29.96890433991373470235, 	 18.87527063528853332741
5.80030000000000001137, 	 40.38519224803763307818, 	 30.51702448609045958960, 	 18.95907511323003546977
5.80140000000000011227, 	 41.00551988725947438752, 	 31.06184917654783816943, 	 19.04494944203787554216
5.80250000000000021316, 	 41.62707215210087952073, 	 31.60298300053046460789, 	 19.13279128276930052266
5.80360000000000031406, 	 42.24977073739296429267, 	 32.14004448849450312764, 	 19.22249754767681650947
5.80470000000000041496, 	 42.87352252574269328989, 	 32.67266722741292284127, 	 19.31396870738541338142
5.80580000000000051585, 	 43.49821876498668160593, 	 33.20050089962877137850, 	 19.40710984730536381448
5.80690000000000061675, 	 44.12373436359935396922, 	 33.72321224428876718093, 	 19.50183060081279862175
5.80800000000000071765, 	 44.74991997773774698999, 	 34.24048593760529968222, 	 19.59804475733413653415
5.80909999999999993037, 	 45.37660154480268204225, 	 34.75202538646357908192, 	 19.69566988854281319732
5.81020000000000003126, 	 46.00358989519828156745, 	 35.25755342870002806421, 	 19.79462709720743163189
5.81130000000000013216, 	 46.63067741216823947070, 	 35.75681293250300996078, 	 19.89484088766439384699
5.81240000000000023306, 	 47.25763705798856761930, 	 36.24956728670225913902, 	 19.99623912298030248280
5.81350000000000033396, 	 47.88422297453024611968, 	 36.73560077330007089813, 	 20.09875303215207509311
5.81460000000000043485, 	 48.51016442472647582917, 	 37.21471881366362310928, 	 20.20231723971690129815
5.81570000000000053575, 	 49.13516511968600042337, 	 37.68674808045831525760, 	 20.30686980015855169768
5.81680000000000063665, 	 49.75890832789491469157, 	 38.15153646859704394956, 	 20.41235225903513139656
5.81789999999999984936, 	 50.38106115733101830756, 	 38.60895292010792445581, 	 20.51871016623401189349
5.81899999999999995026, 	 51.00127186073861906834, 	 39.05888709985263318458, 	 20.62589208166526688615
5.82010000000000005116, 	 51.61916808036796311399, 	 39.50124892144454946674, 	 20.73384954055878992563
5.82120000000000015206, 	 52.23435661304459642906, 	 39.93596792544335727371, 	 20.84253793085697736842
5.82230000000000025295, 	 52.84642264134944866782, 	 40.36299251470151716603, 	 20.95191598290553258721
5.82340000000000035385, 	 53.45492800150515222413, 	 40.78228905416400351669, 	 21.06194514770685088934
5.82450000000000045475, 	 54.05941234173362630600, 	 41.19384084441173143887, 	 21.17259076528675620921
5.82560000000000055564, 	 54.65939536086666805659, 	 41.59764698016690687155, 	 21.28382284455977568882
5.82670000000000065654, 	 55.25437996516841820949, 	 41.99372110693302317941, 	 21.39561270812457394186
5.82779999999999986926, 	 55.84385413449157908872, 	 42.38209009063317012078, 	 21.50791268747594742194
5.82889999999999997016, 	 56.42729195167128608546, 	 42.76279261622786265207, 	 21.62069780607835411956
5.83000000000000007105, 	 57.00415478031734295428, 	 43.13587773169268757556, 	 21.73395829259825617896
5.83110000000000017195, 	 57.57389227545409227105, 	 43.50140335343341035923, 	 21.84768781428947193035
5.83220000000000027285, 	 58.13594392501492080783, 	 43.85943474831223909405, 	 21.96187914961671694414
5.83330000000000037375, 	 58.68974107219163016680, 	 44.21004300610270121297, 	 22.07652392857685086369
5.83440000000000047464, 	 59.23470897954818070730, 	 44.55330351459793547519, 	 22.19161360393812287839
5.83550000000000057554, 	 59.77026898313659586393, 	 44.88929444802366219847, 	 22.30714039945436866219
5.83660000000000067644, 	 60.29584076779602241913, 	 45.21809527809148931965, 	 22.42309788737905407174
5.83769999999999988916, 	 60.81084469321278618281, 	 45.53978531613486069318, 	 22.53948121190178710549
5.83879999999999999005, 	 61.31470411967297451383, 	 45.85444229434583007787, 	 22.65628707130878183307
5.83990000000000009095, 	 61.80684758832178715693, 	 46.16214099408333026986, 	 22.77351356713413821353
5.84100000000000019185, 	 62.28671090482696826029, 	 46.46295192935804152512, 	 22.89116006336977093838
5.84210000000000029274, 	 62.75373925027025023837, 	 46.75694009370367609790, 	 23.00922684185128375134
5.84320000000000039364, 	 63.20738941614981598605, 	 47.04416377856610154140, 	 23.12771476499146316996
5.84430000000000049454, 	 63.64713134007612183041, 	 47.32467347102105037493, 	 23.24662516014248581087
5.84540000000000059543, 	 64.07244718689955220725, 	 47.59851083809013516657, 	 23.36595963481011750673
5.84650000000000069633, 	 64.48283588329651649929, 	 47.86570780423471660470, 	 23.48571985438787024236
5.84759999999999990905, 	 64.87781817318465016342, 	 48.12628572784450398103, 	 23.60590731120252527830
5.84870000000000000995, 	 65.25693718655597308498, 	 48.38025468175501941914, 	 23.72652309682754534492
5.84980000000000011084, 	 65.61975938243263328786, 	 48.62761284204906786499, 	 23.84756768106657531803
5.85090000000000021174, 	 65.96587717015061969050, 	 48.86834598862700573818, 	 23.96904069758211619501
5.85200000000000031264, 	 66.29490682458765604679, 	 49.10242712024828648509, 	 24.09094073530944157824
5.85310000000000041354, 	 66.60648732066198363100, 	 49.32981618590681449632, 	 24.21326513502579302894
5.85420000000000051443, 	 66.90028170522288064603, 	 49.55045993345838439836, 	 24.33600979095866634339
5.85530000000000061533, 	 67.17597942516741227337, 	 49.76429187539455512024, 	 24.45916895778475463885
5.85640000000000071623, 	 67.43329837899278800251, 	 49.97123237065832057624, 	 24.58273506369745575739
5.85749999999999992895, 	 67.67198627342446570765, 	 50.17118882053701867108, 	 24.70669853041120589410
5.85860000000000002984, 	 67.89182126612071499494, 	 50.36405597598902517120, 	 24.83104760106223451999
5.85970000000000013074, 	 68.09261215379132181624, 	 50.54971635320185185947, 	 24.95576817699548399787
5.86080000000000023164, 	 68.27419842735601207551, 	 50.72804075358669706475, 	 25.08084366442509605122
5.86190000000000033253, 	 68.43645021173743714371, 	 50.89888888361278418415, 	 25.20625483193833815676
5.86300000000000043343, 	 68.57926809898567910295, 	 51.06211006879180303031, 	 25.33197967979049991527
5.86410000000000053433, 	 68.70258289213617786118, 	 51.21754405482191430110, 	 25.45799332191407060577
5.86520000000000063523, 	 68.80635527262028006135, 	 51.36502188760932341438, 	 25.58426788154105224748
5.86629999999999984794, 	 68.89057538912219058602, 	 51.50436686285372189786, 	 25.71077240131019792102
5.86739999999999994884, 	 68.95526234783417862673, 	 51.63539553528582359831, 	 25.83747276870011333472
5.86850000000000004974, 	 69.00046357576752598106, 	 51.75791877752781289246, 	 25.96433165759142269735
5.86960000000000015064, 	 69.02625412687635275688, 	 51.87174255830527869193, 	 26.09130849004476360165
5.87070000000000025153, 	 69.03273634338735575966, 	 51.97666916706072726129, 	 26.21835945804527057135
5.87180000000000035243, 	 69.02003981364752860372, 	 52.07249915461247269377, 	 26.34543745333676056930
5.87290000000000045333, 	 68.98832026501843017741, 	 52.15903188323227368528, 	 26.47249203417769791713
5.87400000000000055422, 	 68.93775629143716798808, 	 52.23606676418882699409, 	 26.59946950689868572226
5.87510000000000065512, 	 68.86854565358639490569, 	 52.30340443047963105982, 	 26.72631307380771659155
5.87619999999999986784, 	 68.78090567953697131998, 	 52.36084790358560070445, 	 26.85296306537826538374
5.87729999999999996874, 	 68.67507468860780761588, 	 52.40820374765335287748, 	 26.97935712484884263063
5.87840000000000006963, 	 68.55130663757974218697, 	 52.44528320507217955537, 	 27.10542988586736257162
5.87950000000000017053, 	 68.40979393670234287583, 	 52.47190330774702715644, 	 27.23111267388169665082
5.88060000000000027143, 	 68.25061563533172659390, 	 52.48788795776414417560, 	 27.35633384185967997837
5.88170000000000037232, 	 68.07405195947113440980, 	 52.49306852932782874177, 	 27.48101919274160209739
5.88280000000000047322, 	 67.88073021618757252327, 	 52.48727507433746808374, 	 27.60509230542029968092
5.88390000000000057412, 	 67.67127093743667387571, 	 52.47030340359356159752, 	 27.72847478406662347084
5.88500000000000067502, 	 67.44603157042668328813, 	 52.44216008311332899439, 	 27.85108647277337823311
5.88609999999999988773, 	 67.20542674505001912166, 	 52.40267452940242520754, 	 27.97284566551495643694
5.88719999999999998863, 	 66.95005729376792658059, 	 52.35169216429420657732, 	 28.09366932698418395375
5.88830000000000008953, 	 66.68007099356249511857, 	 52.28911475609560710609, 	 28.21347332977016009181
5.88940000000000019043, 	 66.39561478791374327102, 	 52.21485499063471991121, 	 28.33217270771991636025
5.89050000000000029132, 	 66.09687874423141806801, 	 52.12884001095822839034, 	 28.44968192263154449506
5.89160000000000039222, 	 65.78411736677510646132, 	 52.03101184716622640281, 	 28.56591513989823738484
5.89270000000000049312, 	 65.45763088742991442359, 	 51.92132785407009265555, 	 28.68078650699012044356
5.89380000000000059401, 	 65.11773908505091412735, 	 51.79976109776652037908, 	 28.79421042660484530984
5.89490000000000069491, 	 64.76476874713603137934, 	 51.66630071485231923134, 	 28.90610181563243230585
5.89599999999999990763, 	 64.39904087225626483360, 	 51.52095226053012311240, 	 29.01637634428692535948
5.89710000000000000853, 	 64.02086551750809917394, 	 51.36373805113273505185, 	 29.12495071165015758652
5.89820000000000010942, 	 63.63054396950035851432, 	 51.19469748731305713818, 	 29.23174364398592928183
5.89930000000000021032, 	 63.22883326297730377519, 	 51.01388732870486819593, 	 29.33667390650948902930
5.90040000000000031122, 	 62.81618701938147353303, 	 50.82138188202549144989, 	 29.43966189919190767910
5.90150000000000041211, 	 62.39243696002645833687, 	 50.61727306468200993095, 	 29.54063069891285309154
5.90260000000000051301, 	 61.95773877981793020808, 	 50.40167031580331524765, 	 29.63950621456809386700
5.90370000000000061391, 	 61.51231448104165622226, 	 50.17470034236896481161, 	 29.73621751557378445341
5.90480000000000071481, 	 61.05640118867304977357, 	 49.93650670492674947809, 	 29.83069721602635127056
5.90589999999999992752, 	 60.59023819321693338225, 	 49.68724926180511403118, 	 29.92288175399431793267
5.90700000000000002842, 	 60.11406773990636764893, 	 49.42710350174283462366, 	 30.01271148010239642190
5.90810000000000012932, 	 59.62811815507190971175, 	 49.15625980305123476910, 	 30.10013056529948727302
5.90920000000000023022, 	 59.13260420020655772078, 	 48.87492266019680187128, 	 30.18508680571419233729
