x [cm], 	 0.69214285714285717077, 	 48.45000000000000284217, 	 96.20785714285715073402
0.00000000000000000000, 	 0.00000000000000000000, 	 0.00000000000000000000, 	 0.00000000000000000000
5.70020000000000059970, 	 -0.11232559263698620178, 	 1.87009793918997191398, 	 3.96103114527545674406
5.70130000000000070060, 	 -0.09533411501146425715, 	 1.87362127972255221309, 	 3.94544361966980838829
5.70239999999999991331, 	 -0.07757696872183160453, 	 1.87745622478583173987, 	 3.93003617085512990670
5.70350000000000001421, 	 -0.05908587028610210595, 	 1.88159210160824041935, 	 3.91480832269176781679
5.70460000000000011511, 	 -0.03989084395268793076, 	 1.88601910567579333922, 	 3.89975965310139471853
5.70570000000000021600, 	 -0.02002007161298642243, 	 1.89072823486816354865, 	 3.88488979886102336891
5.70680000000000031690, 	 0.00049982702296086259, 	 1.89571123032367339079, 	 3.87019845674225670962
5.70790000000000041780, 	 0.02164356263322665674, 	 1.90096049714491965865, 	 3.85568538851585218552
5.70900000000000051870, 	 0.04338656673648039891, 	 1.90646904996464483517, 	 3.84135041920603415022
5.71010000000000061959, 	 0.06570475713371838611, 	 1.91223045198387531229, 	 3.82719344190677057682
5.71119999999999983231, 	 0.08857449882295731491, 	 1.91823877073697013351, 	 3.81321440175242720727
5.71229999999999993321, 	 0.11197251533282290281, 	 1.92448852205371068180, 	 3.79941329464739263599
5.71340000000000003411, 	 0.13587587838936898699, 	 1.93097463839744931668, 	 3.78579014343092445927
5.71450000000000013500, 	 0.16026258220925179709, 	 1.93769242078884462721, 	 3.77234500731142130547
5.71560000000000023590, 	 0.18511296067967411560, 	 1.94463750073450869493, 	 3.75907796421945050724
5.71670000000000033680, 	 0.21040572187490330647, 	 1.95180579834805945083, 	 3.74598911841969473002
5.71780000000000043769, 	 0.23612111970978025277, 	 1.95919347433777635281, 	 3.73307860183038942026
5.71890000000000053859, 	 0.26224601889788551334, 	 1.96679689918935096671, 	 3.72034655030430894129
5.72000000000000063949, 	 0.28877768504128775717, 	 1.97461262432768114294, 	 3.70779312227729462847
5.72109999999999985221, 	 0.31572796370462963278, 	 1.98263736494671038990, 	 3.69541845753391307028
5.72219999999999995310, 	 0.34312834177389844870, 	 1.99086802058276579608, 	 3.68322269729551132755
5.72330000000000005400, 	 0.37103569222216459256, 	 1.99930175083391126201, 	 3.67120588697018401803
5.72440000000000015490, 	 0.39953824535879972624, 	 2.00793614276913245931, 	 3.65936788453436490087
5.72550000000000025580, 	 0.42876117598594437608, 	 2.01676950944744159955, 	 3.64770859004297909323
5.72660000000000035669, 	 0.45887152711598516719, 	 2.02580134536610234619, 	 3.63622800567603121635
5.72770000000000045759, 	 0.49008168270268764877, 	 2.03503296996916693828, 	 3.62492629583738112942
5.72880000000000055849, 	 0.52265101989226225854, 	 2.04446838729288016268, 	 3.61380364987866853355
5.72990000000000065938, 	 0.55688563471872942756, 	 2.05411537048425385521, 	 3.60286020417221264367
5.73099999999999987210, 	 0.59313589295583946104, 	 2.06398676715744677779, 	 3.59209608528295110119
5.73209999999999997300, 	 0.63179268503439311999, 	 2.07410200798293242741, 	 3.58151137496029869922
5.73320000000000007390, 	 0.67328207826366848199, 	 2.08448878004601967362, 	 3.57110636154190075331
5.73430000000000017479, 	 0.71805866347381375192, 	 2.09518481155850677666, 	 3.56088155041053866512
5.73540000000000027569, 	 0.76659835907855833348, 	 2.10623970226623535851, 	 3.55083782554794558095
5.73650000000000037659, 	 0.81939077191584774873, 	 2.11771672724416948341, 	 3.54097653057733907644
5.73760000000000047748, 	 0.87693048261467754223, 	 2.12969451725040181955, 	 3.53129974130093193807
5.73870000000000057838, 	 0.93966291021269332528, 	 2.14226853211164369739, 	 3.52181096846349905860
5.73980000000000067928, 	 1.00805564974554529023, 	 2.15555230028807986997, 	 3.51251503507713325192
5.74089999999999989200, 	 1.08243255445554353855, 	 2.16967834499256095881, 	 3.50341845839838494925
5.74199999999999999289, 	 1.16457238137507124165, 	 2.18479870593341907181, 	 3.49452985314353670177
5.74310000000000009379, 	 1.25294660673647628713, 	 2.20108510844130966788, 	 3.48586039167641592584
5.74420000000000019469, 	 1.34677647031009417589, 	 2.21872907119176288049, 	 3.47742424474519795652
5.74530000000000029559, 	 1.44886479137528034755, 	 2.23794289695997106193, 	 3.46923889600410850775
5.74640000000000039648, 	 1.55969893589487096364, 	 2.25895684096751114822, 	 3.46132552231852441693
5.74750000000000049738, 	 1.67928149604520382532, 	 2.28201174914401816451, 	 3.45370935278428703441
5.74860000000000059828, 	 1.80771646488882353765, 	 2.30735865889748570368, 	 3.44641999032991064311
5.74970000000000069917, 	 1.94536019741111454451, 	 2.33526285408569966862, 	 3.43949166793222627092
5.75079999999999991189, 	 2.09232156511524625131, 	 2.36600533330062567927, 	 3.43296339098556479996
5.75190000000000001279, 	 2.24866810482992685039, 	 2.39988077904169472276, 	 3.42687881605854238742
5.75300000000000011369, 	 2.41446431157560947867, 	 2.43719456320394733950, 	 3.42128639100136222595
5.75410000000000021458, 	 2.58976141825954453424, 	 2.47825939268504091828, 	 3.41623941971974742771
5.75520000000000031548, 	 2.77463813282542970384, 	 2.52339165436159440503, 	 3.41179562147998760580
5.75630000000000041638, 	 2.96911609340938120738, 	 2.57290785729820692396, 	 3.40801705242108754490
5.75740000000000051728, 	 3.17315448809557754117, 	 2.62712141561244294508, 	 3.40497003759663297018
5.75850000000000061817, 	 3.38668197131677795042, 	 2.68633980956651896577, 	 3.40272500638985775367
5.75960000000000071907, 	 3.60961172372832894695, 	 2.75086229667565396184, 	 3.40135589527709880642
5.76069999999999993179, 	 3.84184432981109091898, 	 2.82097512464818800382, 	 3.40094009167652533421
5.76180000000000003268, 	 4.08325757696820446085, 	 2.89686184605078977938, 	 3.40155829478168225677
5.76290000000000013358, 	 4.33372659907254842437, 	 2.97875467391625514679, 	 3.40329320307080873675
5.76400000000000023448, 	 4.59310678896826285467, 	 3.06692927882980903576, 	 3.40622921967278946553
5.76510000000000033538, 	 4.86122981713840385254, 	 3.16164406269910314151, 	 3.41045187846118391661
5.76620000000000043627, 	 5.13790577144124149811, 	 3.26310179851342185842, 	 3.41605136812406806612
5.76730000000000053717, 	 5.42292594808598060752, 	 3.37148104724813801880, 	 3.42309319953715496254
5.76840000000000063807, 	 5.71606518448366784924, 	 3.48693823015301740398, 	 3.43127452202218430344
5.76949999999999985079, 	 6.01708311587485944472, 	 3.60960675482844006723, 	 3.44030365765658086019
5.77059999999999995168, 	 6.32572066216667927563, 	 3.73959613411055258325, 	 3.45007043933321977391
5.77170000000000005258, 	 6.64170289489980092412, 	 3.87699046063889785074, 	 3.46169602991402935999
5.77280000000000015348, 	 6.96474399569250746111, 	 4.02184600176675921546, 	 3.47681402456445853844
5.77390000000000025437, 	 7.29455029543795507863, 	 4.17418980691943986017, 	 3.49503908193602486065
5.77500000000000035527, 	 7.63082144579276278051, 	 4.33402229924223281188, 	 3.51550780275145235976
5.77610000000000045617, 	 7.97325097227845880354, 	 4.50132310819091419063, 	 3.53796561933961406510
5.77720000000000055707, 	 8.32152607968626512047, 	 4.67605428666233002843, 	 3.56210032550869248880
5.77830000000000065796, 	 8.67532733149248436177, 	 4.85815824305133503458, 	 3.58823156234507978368
5.77939999999999987068, 	 9.03432612164898785068, 	 5.04755378079681182868, 	 3.61656524181756511283
5.78049999999999997158, 	 9.39818879281879304699, 	 5.24413300566285922599, 	 3.64713384050535660563
5.78160000000000007248, 	 9.76657893433584689546, 	 5.44776089129687246526, 	 3.67984860375398925569
5.78270000000000017337, 	 10.13915459229012405729, 	 5.65827676985373262397, 	 3.71471871067198122773
5.78380000000000027427, 	 10.51556861092786832046, 	 5.87549604031215899624, 	 3.75181207915953462972
5.78490000000000037517, 	 10.89546900325548151045, 	 6.09921140993932109353, 	 3.79120207206238601927
5.78600000000000047606, 	 11.27849964616420308516, 	 6.32919391544825682416, 	 3.83294487355873014778
5.78710000000000057696, 	 11.66430083589445487746, 	 6.56519428487150857876, 	 3.87706913050059487347
5.78820000000000067786, 	 12.05250967683755014548, 	 6.80694451845403936119, 	 3.92358791205390389223
5.78929999999999989058, 	 12.44276034067934055827, 	 7.05415946026510631839, 	 3.97250349989314166521
5.79039999999999999147, 	 12.83468423627424925826, 	 7.30653833267746666280, 	 4.02381121343816072766
5.79150000000000009237, 	 13.22791013183335628867, 	 7.56376620740828542466, 	 4.07749881649932621741
5.79260000000000019327, 	 13.62206379609492223892, 	 7.82551531160738012005, 	 4.13351472151945387168
5.79370000000000029416, 	 14.01676705666086419910, 	 8.09144618410817351162, 	 4.19181025255334560597
5.79480000000000039506, 	 14.41164248006029424687, 	 8.36120882795016839850, 	 4.25235111071353788503
5.79590000000000049596, 	 14.80630983108677511950, 	 8.63444382018306910709, 	 4.31510992064620690911
5.79700000000000059686, 	 15.20038727361748343014, 	 8.91078334403841054723, 	 4.38006006388413826613
5.79810000000000069775, 	 15.59349157897448279186, 	 9.18985227973552554204, 	 4.44717018958612175794
5.79919999999999991047, 	 15.98523811792490612049, 	 9.47126940068049449906, 	 4.51640261220375549556
5.80030000000000001137, 	 16.37524075169113046968, 	 9.75464858479441154770, 	 4.58771383293307000173
5.80140000000000011227, 	 16.76311121502764223123, 	 10.03960003443194537454, 	 4.66105505980677303768
5.80250000000000021316, 	 17.14846364024814207028, 	 10.32573148544581442820, 	 4.73637285773004546030
5.80360000000000031406, 	 17.53091137704223001492, 	 10.61264936625000032677, 	 4.81360978065351297062
5.80470000000000041496, 	 17.91006685059408809479, 	 10.89995985679751200337, 	 4.89270492104403675881
5.80580000000000051585, 	 18.28554542082041933782, 	 11.18726990521591169170, 	 4.97359436264618537393
5.80690000000000061675, 	 18.65696371851608859060, 	 11.47418821162364821475, 	 5.05621154628254121377
5.80800000000000071765, 	 19.02394079739653065531, 	 11.76032618082909131374, 	 5.14048756636275339105
5.80909999999999993037, 	 19.38609929581019031275, 	 12.04529898829958334261, 	 5.22635141611127895800
5.81020000000000003126, 	 19.74306615313630075548, 	 12.32872697736433309501, 	 5.31373019692290871063
5.81130000000000013216, 	 20.09447299976872258753, 	 12.61023792764912343500, 	 5.40254935080177833839
5.81240000000000023306, 	 20.43995670932917008145, 	 12.88947053638542250553, 	 5.49273360096376883632
5.81350000000000033396, 	 20.77916015237547497918, 	 13.16605630422424155768, 	 5.58420540325802150505
5.81460000000000043485, 	 21.11173224176177143363, 	 13.43962700254273912037, 	 5.67688532673273105189
5.81570000000000053575, 	 21.43733000194020732465, 	 13.70983375047014085624, 	 5.77069385546248536656
5.81680000000000063665, 	 21.75561857101731533248, 	 13.97633641249875147139, 	 5.86555086536179537404
5.81789999999999984936, 	 22.06627070383108346618, 	 14.23880363381637259579, 	 5.96137540835181134469
5.81899999999999995026, 	 22.36896738650105120882, 	 14.49691385691073719499, 	 6.05808626408781680794
5.82010000000000005116, 	 22.66339903284083234780, 	 14.75035568539640706831, 	 6.15560148004092511087
5.82120000000000015206, 	 22.94926667872508119217, 	 14.99882809246165393802, 	 6.25383749656138920869
5.82230000000000025295, 	 23.22628294014107552812, 	 15.24204080200881961105, 	 6.35271014469221917409
5.82340000000000035385, 	 23.49417272308422255378, 	 15.47971464079074443987, 	 6.45213463698731271023
5.82450000000000045475, 	 23.75267375286370707954, 	 15.71158200245068314871, 	 6.55202567021590009944
5.82560000000000055564, 	 24.00153699601694512467, 	 15.93738717285709505234, 	 6.65229837327322570673
5.82670000000000065654, 	 24.24052702784914359313, 	 16.15688655206448132162, 	 6.75286851352347472499
5.82779999999999986926, 	 24.46942237553922794291, 	 16.36984888169854102102, 	 6.85365276674954682079
5.82889999999999997016, 	 24.68801584857940412121, 	 16.57605546905612570185, 	 6.95456808151072536361
5.83000000000000007105, 	 24.89611485631935750007, 	 16.77530039768040026615, 	 7.05553187852339647179
5.83110000000000017195, 	 25.09354170650419391109, 	 16.96739073193286273522, 	 7.15646241872849575572
5.83220000000000027285, 	 25.28013391308153501313, 	 17.15214669613388309699, 	 7.25727878282365868046
5.83330000000000037375, 	 25.45574442184273422640, 	 17.32940182058416311861, 	 7.35790091066179119395
5.83440000000000047464, 	 25.62024182019268891963, 	 17.49900305825055113473, 	 7.45824967179804865225
5.83550000000000057554, 	 25.77351022567764715632, 	 17.66081087360052492841, 	 7.55824987339059539693
5.83660000000000067644, 	 25.91544898297663124254, 	 17.81469930336510998359, 	 7.65782877709271136979
5.83769999999999988916, 	 26.04597374796633957317, 	 17.96055598878453807288, 	 7.75690432769227555809
5.83879999999999999005, 	 26.16501671417145047371, 	 18.09828218975663816082, 	 7.85539271360353108520
5.83990000000000009095, 	 26.27252593419258985818, 	 18.22779278155061888356, 	 7.95321492756861658791
5.84100000000000019185, 	 26.36846474933605222191, 	 18.34901620430803603767, 	 8.05029773253433589275
5.84210000000000029274, 	 26.45281152585680928269, 	 18.46189435757436925201, 	 8.14657251231438195305
5.84320000000000039364, 	 26.52556011298649352170, 	 18.56638245688096944264, 	 8.24197382197200845155
5.84430000000000049454, 	 26.58671978072761632461, 	 18.66244888738352969426, 	 8.33643834004749351152
5.84540000000000059543, 	 26.63631730032527400454, 	 18.75007506325701100991, 	 8.42990430441261828776
5.84650000000000069633, 	 26.67439744930718603655, 	 18.82925528987513885681, 	 8.52231131331360813874
5.84759999999999990905, 	 26.70101895927969692934, 	 18.89999661978893641390, 	 8.61360039628942608658
5.84870000000000000995, 	 26.71625318927163661442, 	 18.96231874487330415491, 	 8.70371414099302498357
5.84980000000000011084, 	 26.72018369055637165843, 	 19.01625403855802431963, 	 8.79259674929641121821
5.85090000000000021174, 	 26.71290627114714766321, 	 19.06184692903251232110, 	 8.88019426742032891298
5.85200000000000031264, 	 26.69452929577803246275, 	 19.09914990083406038934, 	 8.96645481494506491060
5.85310000000000041354, 	 26.66517382702148708518, 	 19.12823030655487954732, 	 9.05132864841996997995
5.85420000000000051443, 	 26.62497346094748706946, 	 19.14916703421955190834, 	 9.13476838909077315520
5.85530000000000061533, 	 26.57407391184545986107, 	 19.16204938368888122113, 	 9.21672921737341432902
5.85640000000000071623, 	 26.51263238197217830816, 	 19.16697735047528539098, 	 9.29716879355588865508
5.85749999999999992895, 	 26.44081698966425264530, 	 19.16406098957433457031, 	 9.37604697478604620642
5.85860000000000002984, 	 26.35880621411583035751, 	 19.15341992975453067061, 	 9.45332573643727158696
5.85970000000000013074, 	 26.26678837588417181337, 	 19.13518301252672060286, 	 9.52896934779618831612
5.86080000000000023164, 	 26.16496112394138151558, 	 19.10948788867391456847, 	 9.60294452796137321116
5.86190000000000033253, 	 26.05353063605918251255, 	 19.07648058649663980191, 	 9.67522053249074609482
5.86300000000000043343, 	 25.93268674773448978499, 	 19.03631505099464860109, 	 9.74576918852844720220
5.86410000000000053433, 	 25.80265014238193899132, 	 18.98915173448254734012, 	 9.81456489795754549732
5.86520000000000063523, 	 25.66361885127054520694, 	 18.93515152470600781953, 	 9.88158462136337512050
5.86629999999999984794, 	 25.51577331441249185673, 	 18.87447219712987589446, 	 9.94680784919189164839
5.86739999999999994884, 	 25.35932651544571214686, 	 18.80732336943544424912, 	 10.01021655272889532284
5.86850000000000004974, 	 25.19454979605746913762, 	 18.73396468985544416341, 	 10.07179508069020990035
5.86960000000000015064, 	 25.02178528797796275285, 	 18.65448955315005008515, 	 10.13152998823924377803
5.87070000000000025153, 	 24.84136817235131289294, 	 18.56911206991628660035, 	 10.18940988970040706363
5.87180000000000035243, 	 24.65360148034314136112, 	 18.47803079069904796938, 	 10.24542550237512550382
5.87290000000000045333, 	 24.45876400835481945251, 	 18.38144792973844232620, 	 10.29956989621786966893
5.87400000000000055422, 	 24.25712068061193349422, 	 18.27956902621848200852, 	 10.35183830414518624252
5.87510000000000065512, 	 24.04892986012431776999, 	 18.17260276358599924151, 	 10.40222850717702485213
5.87619999999999986784, 	 23.83444811680181985025, 	 18.06076078548940699875, 	 10.45074085791463147643
5.87729999999999996874, 	 23.61392183152141299729, 	 17.94425722892492913729, 	 10.49737811864927827799
5.87840000000000006963, 	 23.38768479788609866432, 	 17.82330814967829368811, 	 10.54214523622772858857
5.87950000000000017053, 	 23.15604660017470450839, 	 17.69813088741517859148, 	 10.58504914614878522627
5.88060000000000027143, 	 22.91927235826576492173, 	 17.56894342064474301424, 	 10.62609860010839391009
5.88170000000000037232, 	 22.67760806168084997125, 	 17.43596383189730048002, 	 10.66530456740636445545
5.88280000000000047322, 	 22.43129508337776201188, 	 17.29940990361723862634, 	 10.70268146329338598832
5.88390000000000057412, 	 22.18057614035814140152, 	 17.15949868958726654000, 	 10.73824451915475641783
5.88500000000000067502, 	 21.92569680821920741209, 	 17.01644600935063778024, 	 10.77200720617582163641
5.88609999999999988773, 	 21.66690506169129548653, 	 16.87046587570820221913, 	 10.80398258772163089247
5.88719999999999998863, 	 21.40445010812530668431, 	 16.72176992507201020999, 	 10.83418496729844093807
5.88830000000000008953, 	 21.13858110599360884407, 	 16.57056687586452525807, 	 10.86263076080135370205
5.88940000000000019043, 	 20.86954601091550998149, 	 16.41706201732272418781, 	 10.88933898785532505826
5.89050000000000029132, 	 20.59759012453471171966, 	 16.26145675779667953975, 	 10.91433080482613426909
5.89160000000000039222, 	 20.32295441918529022018, 	 16.10394827625412261796, 	 10.93762998802761998718
5.89270000000000049312, 	 20.04587869214024919984, 	 15.94472923713434298065, 	 10.95926199061535832868
5.89380000000000059401, 	 19.76659854596052312559, 	 15.78398758944558366579, 	 10.97925271912204081559
5.89490000000000069491, 	 19.48542186597041947493, 	 15.62190629036375355554, 	 10.99762913617615645023
5.89599999999999990763, 	 19.20266982885682693905, 	 15.45866315301980620234, 	 11.01441702622703999737
5.89710000000000000853, 	 18.91852567569690890537, 	 15.29443077177303145220, 	 11.02964297360561296557
5.89820000000000010942, 	 18.63316260158260817548, 	 15.12937651885109069383, 	 11.04333839072934608794
5.89930000000000021032, 	 18.34675729422977497052, 	 14.96366275825977432135, 	 11.05553354046664615851
5.90040000000000031122, 	 18.05949098696112287143, 	 14.79744695328185422056, 	 11.06625591270172748182
5.90150000000000041211, 	 17.77154731550303168319, 	 14.63088137464749038941, 	 11.07553312184786165062
5.90260000000000051301, 	 17.48310976920116743827, 	 14.46411264369377391859, 	 11.08339240144272075383
5.90370000000000061391, 	 17.19435945926637998582, 	 14.29728133926817790211, 	 11.08986106652343472945
5.90480000000000071481, 	 16.90547293593537148126, 	 14.13052172234437620091, 	 11.09496622541649202276
5.90589999999999992752, 	 16.61662049093612836259, 	 13.96396158860383351907, 	 11.09873487625202237439
5.90700000000000002842, 	 16.32797063815531046771, 	 13.79772221161874590223, 	 11.10119418975778948777
5.90810000000000012932, 	 16.03968559729157306037, 	 13.63191834429610160839, 	 11.10237169165407777882
5.90920000000000023022, 	 15.75192040669983661871, 	 13.46665821946045582536, 	 11.10229527082146638861
5.91030000000000033111, 	 15.46482320529476872650, 	 13.30204357802035453062, 	 11.10099306313542655289
5.91140000000000043201, 	 15.17853524172810786297, 	 13.13816975296180622479, 	 11.09849328203608820331
