x [cm], 	 0.69214285714285717077, 	 48.45000000000000284217, 	 96.20785714285715073402
0.00000000000000000000, 	 0.00000000000000000000, 	 0.00000000000000000000, 	 0.00000000000000000000
5.70020000000000059970, 	 0.64349426334756221202, 	 2.00983214632673989897, 	 3.41303349995275739914
5.70130000000000070060, 	 0.66802687585902986722, 	 2.01611739711213155957, 	 3.40142548340364081483
5.70239999999999991331, 	 0.69274265852324878878, 	 2.02267962119732347404, 	 3.39000698552137524899
5.70350000000000001421, 	 0.71761923511713032742, 	 2.02951504957445294508, 	 3.37877888890144717493
5.70460000000000011511, 	 0.74263368401465124080, 	 2.03661889612965030238, 	 3.36774195466633763374
5.70570000000000021600, 	 0.76776256400270337377, 	 2.04398533747577060282, 	 3.35689682332032646173
5.70680000000000031690, 	 0.79298190244959576578, 	 2.05160749648572959813, 	 3.34624392539947335123
5.70790000000000041780, 	 0.81826717275911353688, 	 2.05947743382502235221, 	 3.33578347904449046268
5.70900000000000051870, 	 0.84359335317631845008, 	 2.06758614682704955356, 	 3.32551555679500321361
5.71010000000000061959, 	 0.86893501198849654177, 	 2.07592356904326935663, 	 3.31543995245901479407
5.71119999999999983231, 	 0.89426642706773773472, 	 2.08447858282351417003, 	 3.30555618175428289618
5.71229999999999993321, 	 0.91956156338210426338, 	 2.09323903276499390103, 	 3.29586347310355165519
5.71340000000000003411, 	 0.94479443684300201678, 	 2.10219174637805883421, 	 3.28636084182584342628
5.71450000000000013500, 	 0.96993927210965369401, 	 2.11132256179283395170, 	 3.27704722268444204047
5.71560000000000023590, 	 0.99497174232192675536, 	 2.12061635118041547088, 	 3.26792085153024958188
5.71670000000000033680, 	 1.01987106544763106442, 	 2.13005705973220349492, 	 3.25897960375201112271
5.71780000000000043769, 	 1.04462338104304364172, 	 2.13962775367349911093, 	 3.25022094819251972098
5.71890000000000053859, 	 1.06922689110526580869, 	 2.14931068178698625459, 	 3.24164302163108830612
5.72000000000000063949, 	 1.09369868351220489444, 	 2.15908736831297565217, 	 3.23324422723839033367
5.72109999999999985221, 	 1.11808303324657343225, 	 2.16893877546890312402, 	 3.22502223077945515683
5.72219999999999995310, 	 1.14246128005650082748, 	 2.17884557256288147187, 	 3.21697407569417270778
5.72330000000000005400, 	 1.16696175961563675116, 	 2.18878854153493263013, 	 3.20909644643955793697
5.72440000000000015490, 	 1.19176871225685809819, 	 2.19874918445579803361, 	 3.20138581434698776818
5.72550000000000025580, 	 1.21712921181504829526, 	 2.20871060360089854768, 	 3.19383847735984538474
5.72660000000000035669, 	 1.24335754555549216072, 	 2.21865871724385055330, 	 3.18645055887377992576
5.72770000000000045759, 	 1.27083571703968489786, 	 2.22858385426060623402, 	 3.17921801070365050990
5.72880000000000055849, 	 1.30001170842865532151, 	 2.23848275117702488757, 	 3.17213664202681444593
5.72990000000000065938, 	 1.33139042327991230508, 	 2.24836094955665544148, 	 3.16520218448184920135
5.73099999999999987210, 	 1.36551207232217763909, 	 2.25823553666082377234, 	 3.15841040043616150257
5.73209999999999997300, 	 1.40296194413911679000, 	 2.26813813030951694216, 	 3.15175724186578820607
5.73320000000000007390, 	 1.44435621532123970034, 	 2.27811797345861055675, 	 3.14523905586675800450
5.73430000000000017479, 	 1.49032106990896084930, 	 2.28824498290316347138, 	 3.13885290095240776509
5.73540000000000027569, 	 1.54147117732078231533, 	 2.29861261623279000688, 	 3.13259690497590836955
5.73650000000000037659, 	 1.59815493209013625986, 	 2.30934037858668483878, 	 3.12647067954364477060
5.73760000000000047748, 	 1.66240236201882352063, 	 2.32057582803929607351, 	 3.12047583677139250824
5.73870000000000057838, 	 1.73176337108432365497, 	 2.33249594733164000715, 	 3.11461657987924134261
5.73980000000000067928, 	 1.80888641148933415614, 	 2.34530808435459725558, 	 3.10890034864355158106
5.74089999999999989200, 	 1.89462378540033649088, 	 2.35925071069467584550, 	 3.10333846642686728146
5.74199999999999999289, 	 1.98915455877601088375, 	 2.37458948545479175962, 	 3.09794687409556956936
5.74310000000000009379, 	 2.09263833835348300738, 	 2.39161377832627675133, 	 3.09274682747204554545
5.74420000000000019469, 	 2.20552418769554625655, 	 2.41063873801450512246, 	 3.08776547806948276076
5.74530000000000029559, 	 2.32798858635772454306, 	 2.43200650150381658676, 	 3.08303640642907872405
5.74640000000000039648, 	 2.46017817074494171692, 	 2.45608347238462876305, 	 3.07859993579478707915
5.74750000000000049738, 	 2.60224269787995288183, 	 2.48325576508997336589, 	 3.07450358799484835259
5.74860000000000059828, 	 2.75428794421934242109, 	 2.51392395297685533606, 	 3.07080231856466001616
5.74970000000000069917, 	 2.91639403563548427201, 	 2.54849751518138090134, 	 3.06755828117891082840
5.75079999999999991189, 	 3.08858107146432425694, 	 2.58738949486363756236, 	 3.06484102903811272967
5.75190000000000001279, 	 3.27080579433169882364, 	 2.63101154982562102091, 	 3.06272719530975123803
5.75300000000000011369, 	 3.46298244625165052568, 	 2.67976777901428553363, 	 3.06130049399850090452
5.75410000000000021458, 	 3.66499901981536968520, 	 2.73395806300244270659, 	 3.06065149210181841610
5.75520000000000031548, 	 3.87671323535312595254, 	 2.79390916681008283362, 	 3.06087639600888605784
5.75630000000000041638, 	 4.09797387839112303709, 	 2.86005257934477441495, 	 3.06207614890607526803
5.75740000000000051728, 	 4.32860321795678881784, 	 2.93273244203993233015, 	 3.06435543393891007824
5.75850000000000061817, 	 4.56839507096011221421, 	 3.01225699057797458025, 	 3.06782347016814949114
5.75960000000000071907, 	 4.81711818783269318800, 	 3.09890451922417309305, 	 3.07258384728456768187
5.76069999999999993179, 	 5.07451987440105600768, 	 3.19292297290407356414, 	 3.07868738232460659177
5.76180000000000003268, 	 5.34032857536944849386, 	 3.29452797696758592494, 	 3.08554805414110822070
5.76290000000000013358, 	 5.61425615244840781060, 	 3.40390134162746438307, 	 3.09318100997406464359
5.76400000000000023448, 	 5.89600064783407518121, 	 3.52118950310145928384, 	 3.10298368403481239497
5.76510000000000033538, 	 6.18524888622756296996, 	 3.64650069382827979325, 	 3.11603273459621421537
5.76620000000000043627, 	 6.48167891789224004384, 	 3.77990254171828832241, 	 3.13141753986322735059
5.76730000000000053717, 	 6.78496101790275218946, 	 3.92142507255827243995, 	 3.14887312848180123126
5.76840000000000063807, 	 7.09475484843516746025, 	 4.07106629970383249173, 	 3.16803795466722970531
5.76949999999999985079, 	 7.41071163946387745369, 	 4.22879363826786036640, 	 3.18920670866453059844
5.77059999999999995168, 	 7.73247767454489220995, 	 4.39454151822541927430, 	 3.21260149401340333597
5.77170000000000005258, 	 8.05969613022586450768, 	 4.56820838374590909581, 	 3.23831660856600223042
5.77280000000000015348, 	 8.39200659999884557294, 	 4.74965573856575762335, 	 3.26636432834925294344
5.77390000000000025437, 	 8.72904410258278318224, 	 4.93870948533021358884, 	 3.29670103310457873746
5.77500000000000035527, 	 9.07044603766235191245, 	 5.13516219034790388775, 	 3.32938511386451008178
5.77610000000000045617, 	 9.41584701570403659332, 	 5.33877507431259701320, 	 3.36449376947049438868
5.77720000000000055707, 	 9.76487784082242349371, 	 5.54927974490483055803, 	 3.40208013467729264434
5.77830000000000065796, 	 10.11716504169088359788, 	 5.76638012388072507264, 	 3.44217597374016381906
5.77939999999999987068, 	 10.47233106237172961528, 	 5.98975461974393397213, 	 3.48479744515493594648
5.78049999999999997158, 	 10.82999447240437795870, 	 6.21905852687318105865, 	 3.52994754462691640029
5.78160000000000007248, 	 11.18977000071586047625, 	 6.45392650040334370232, 	 3.57761687143483797513
5.78270000000000017337, 	 11.55126842413278431820, 	 6.69397490762037694623, 	 3.62778753793888952828
5.78380000000000027427, 	 11.91409639613906712441, 	 6.93880401608349739462, 	 3.68043466495080018319
5.78490000000000037517, 	 12.27785559790030944782, 	 7.18800008380278754316, 	 3.73552716206731316717
5.78600000000000047606, 	 12.64214237946311314431, 	 7.44113737908743289040, 	 3.79303192579749115509
5.78710000000000057696, 	 13.00655103747471841302, 	 7.69778015415024352563, 	 3.85288731489355873450
5.78820000000000067786, 	 13.37067090584249129392, 	 7.95748456893036770765, 	 3.91502112629199183758
5.78929999999999989058, 	 13.73408727136783014089, 	 8.21980053265323462597, 	 3.97937680196856069514
5.79039999999999999147, 	 14.09638124098999156786, 	 8.48427346450102604081, 	 4.04590460537988416689
5.79150000000000009237, 	 14.45712959280579745780, 	 8.75044594973567058105, 	 4.11455354885314239510
5.79260000000000019327, 	 14.81590408133745384589, 	 9.01785934810770406500, 	 4.18526753741248214169
5.79370000000000029416, 	 15.17227612467178943234, 	 9.28605541466786021942, 	 4.25798441022807505618
5.79480000000000039506, 	 15.52581314435861692402, 	 9.55457790740722501255, 	 4.33263637050316230415
5.79590000000000049596, 	 15.87608112167350249422, 	 9.82297409103256491392, 	 4.40915088580077529912
5.79700000000000059686, 	 16.22264568534720652337, 	 10.09079615706324162261, 	 4.48745161696816641239
5.79810000000000069775, 	 16.56507317402620316216, 	 10.35760260896430118294, 	 4.56745928210206653119
5.79919999999999991047, 	 16.90293241467511364817, 	 10.62296009885129244310, 	 4.64909282282632840833
5.80030000000000001137, 	 17.23579551491767958282, 	 10.88644829886061415891, 	 4.73226839141310051673
5.80140000000000011227, 	 17.56323865780315784946, 	 11.14765998391155576996, 	 4.81690068014858940870
5.80250000000000021316, 	 17.88484320326170617932, 	 11.40617242805816644591, 	 4.90290244045942014139
5.80360000000000031406, 	 18.20019694960961231800, 	 11.66158677909195340305, 	 4.99018574756724131447
5.80470000000000041496, 	 18.50889538819344082299, 	 11.91351839695152747822, 	 5.07866284922830590887
5.80580000000000051585, 	 18.81054294090161604913, 	 12.16159464216625529787, 	 5.16824632559165486612
5.80690000000000061675, 	 19.10475422321669114467, 	 12.40545582762256415776, 	 5.25884747919916506476
5.80800000000000071765, 	 19.39115532167155464549, 	 12.64475567495159680220, 	 5.35037612553006614036
5.80909999999999993037, 	 19.66938505846898621598, 	 12.87916156878263329588, 	 5.44274108156987157514
5.81020000000000003126, 	 19.93909621993516978478, 	 13.10835486883308931283, 	 5.53585050296776248757
5.81130000000000013216, 	 20.19995673183880313672, 	 13.33203128444318608103, 	 5.62961198147108543566
5.81240000000000023306, 	 20.45165076750742016998, 	 13.54990131798112962258, 	 5.72393295996796780400
5.81350000000000033396, 	 20.69387977692680991026, 	 13.76169056430294013182, 	 5.81872155903829568757
5.81460000000000043485, 	 20.92636342802507343208, 	 13.96713991919018305055, 	 5.91388663718165474847
5.81570000000000053575, 	 21.14884063302026362408, 	 14.16600578649183717062, 	 6.00933772812399791263
5.81680000000000063665, 	 21.36106992247895774995, 	 14.35806028305368009512, 	 6.10498505293761084545
5.81789999999999984936, 	 21.56283059757967635051, 	 14.54309143481545518739, 	 6.20073962572541859117
5.81899999999999995026, 	 21.75392358906064060875, 	 14.72090336456474268800, 	 6.29651303234064485537
5.82010000000000005116, 	 21.93417002716087083058, 	 14.89131645845633222791, 	 6.39221763873679371670
5.82120000000000015206, 	 22.10341142889666343763, 	 15.05416749369759443766, 	 6.48776668829523828208
5.82230000000000025295, 	 22.26151087166079989288, 	 15.20930974136380164907, 	 6.58307450343669575687
5.82340000000000035385, 	 22.40835399164231134250, 	 15.35661304597600107513, 	 6.67805662346586625944
5.82450000000000045475, 	 22.54384942003838077085, 	 15.49596387019346543923, 	 6.77262992699523902473
5.82560000000000055564, 	 22.66792872227756205916, 	 15.62726530300072447233, 	 6.86671275337753694856
5.82670000000000065654, 	 22.78054600750639480111, 	 15.75043703679076756430, 	 6.96022502730218839417
5.82779999999999986926, 	 22.88167762986684294901, 	 15.86541531916717318040, 	 7.05308838677421778840
5.82889999999999997016, 	 22.97132143014618321786, 	 15.97215288185451420588, 	 7.14522631320726375748
5.83000000000000007105, 	 23.04949545332208060699, 	 16.07061884546753560699, 	 7.23656426195976099081
5.83110000000000017195, 	 23.11623937203120959794, 	 16.16079860319868188867, 	 7.32702983222874504321
5.83220000000000027285, 	 23.17161317577931001210, 	 16.24269368435190585842, 	 7.41655294581839363843
5.83330000000000037375, 	 23.21569522844567501352, 	 16.31632156970393765505, 	 7.50506576047877871360
5.83440000000000047464, 	 23.24858177111699575335, 	 16.38171547102578884392, 	 7.59250283446242235641
5.83550000000000057554, 	 23.27038816601334403344, 	 16.43892420461385839303, 	 7.67880132144326843502
5.83660000000000067644, 	 23.28125132806360753079, 	 16.48801243244992775772, 	 7.76390116467909408016
5.83769999999999988916, 	 23.28132424750009832337, 	 16.52905608423500893878, 	 7.84774508677954951708
5.83879999999999999005, 	 23.27077361109984110499, 	 16.56214751577636690172, 	 7.93027878030776633977
5.83990000000000009095, 	 23.24977901156164961094, 	 16.58739302945572546832, 	 8.01145116141382729325
5.84100000000000019185, 	 23.21853287335303761552, 	 16.60491238009410963627, 	 8.09121446143126554773
5.84210000000000029274, 	 23.17724052766025266692, 	 16.61483832504147883924, 	 8.16952374356406885170
5.84320000000000039364, 	 23.12611989033955595119, 	 16.61731596066646332588, 	 8.24633681745648239314
5.84430000000000049454, 	 23.06540070870859082675, 	 16.61250217641039839123, 	 8.32161756131879570830
5.84540000000000059543, 	 22.99532359296891925737, 	 16.60056504122002252188, 	 8.39533123972989869799
5.84650000000000069633, 	 22.91613901426190125221, 	 16.58168313483756506344, 	 8.46743836754760437202
5.84759999999999990905, 	 22.82810363750927251658, 	 16.55604485020884197866, 	 8.53790329310183437883
5.84870000000000000995, 	 22.73145751076296861015, 	 16.52384761289680170648, 	 8.60669783457445269903
5.84980000000000011084, 	 22.62646907469376955646, 	 16.48529423255427417416, 	 8.67380041481846753015
5.85090000000000021174, 	 22.51335998511880021056, 	 16.44058336780168971814, 	 8.73919427733322784491
5.85200000000000031264, 	 22.39236870945948254530, 	 16.38995970773378019203, 	 8.80286614643228482180
5.85310000000000041354, 	 22.26381023151769511514, 	 16.33366447786265851505, 	 8.86480547622322845314
5.85420000000000051443, 	 22.12807872196598069081, 	 16.27192849150130626867, 	 8.92500405162733656539
5.85530000000000061533, 	 21.98554944696291357786, 	 16.20496104638314349700, 	 8.98345579111999903432
5.85640000000000071623, 	 21.83655893015533777657, 	 16.13300139256806886578, 	 9.04015679073541988942
5.85749999999999992895, 	 21.68141608931646047154, 	 16.05629088620665356757, 	 9.09510559728147605085
5.85860000000000002984, 	 21.52041538613371329802, 	 15.97507333141810725863, 	 9.14830353690251563137
5.85970000000000013074, 	 21.35384562702290267566, 	 15.88959477624850258337, 	 9.19975490646415927642
5.86080000000000023164, 	 21.18199441059413601351, 	 15.80010295489550919967, 	 9.24946695048639355718
5.86190000000000033253, 	 21.00514971506457229111, 	 15.70684657893523805683, 	 9.29744966191708854808
5.86300000000000043343, 	 20.82359086193864072811, 	 15.61007447967422834267, 	 9.34371548687445319104
5.86410000000000053433, 	 20.63765251623441798756, 	 15.51003468386241301857, 	 9.38827905655479355573
5.86520000000000063523, 	 20.44767179275580559761, 	 15.40697350435611667763, 	 9.43115697717161260982
5.86629999999999984794, 	 20.25393440492133123598, 	 15.30113469854419960825, 	 9.47236754611567732809
5.86739999999999994884, 	 20.05670337051486384894, 	 15.19275875473986658903, 	 9.51193054858106989968
5.86850000000000004974, 	 19.85623486591628150677, 	 15.08208233144907595147, 	 9.54986763311691078115
5.86960000000000015064, 	 19.65278393019347547011, 	 14.96933775887902129398, 	 9.58620169987156245384
5.87070000000000025153, 	 19.44660467028734984751, 	 14.85475244142471318298, 	 9.62095684201698730931
5.87180000000000035243, 	 19.23794922321018319167, 	 14.73854824006471986308, 	 9.65415894469290947200
5.87290000000000045333, 	 19.02706980061957509065, 	 14.62094087343615100849, 	 9.68583481187255657119
5.87400000000000055422, 	 18.81421383895009569187, 	 14.50213934407707405683, 	 9.71601217479593692872
5.87510000000000065512, 	 18.59962313555792690067, 	 14.38234534986562707104, 	 9.74471924255870192155
5.87619999999999986784, 	 18.38353331575575211332, 	 14.26175287963991955564, 	 9.77198544880758923625
5.87729999999999996874, 	 18.16617275687511323667, 	 14.14054787729193662926, 	 9.79784042618927841772
5.87840000000000006963, 	 17.94776288877464054394, 	 14.01890802334395402795, 	 9.82231465768403211314
5.87950000000000017053, 	 17.72851906727355597582, 	 13.89700262688721288384, 	 9.84544014760410135523
5.88060000000000027143, 	 17.50864804673027919080, 	 13.77499246746720373835, 	 9.86724808704760647515
5.88170000000000037232, 	 17.28834842346341460484, 	 13.65302968628052227018, 	 9.88777020850384680273
5.88280000000000047322, 	 17.06781166150730655318, 	 13.53125777577397848006, 	 9.90703817210857629050
5.88390000000000057412, 	 16.84722061393863867806, 	 13.40981156311047151064, 	 9.92508386316150570394
5.88500000000000067502, 	 16.62674946438050938013, 	 13.28881717692238950690, 	 9.94193934926218148007
5.88609999999999988773, 	 16.40656359427436683518, 	 13.16839204790344020068, 	 9.95763529270307223840
5.88719999999999998863, 	 16.18683785983868261837, 	 13.04864562854578835527, 	 9.97220194000753501484
5.88830000000000008953, 	 15.96779551691832566007, 	 12.92968027247509077426, 	 9.98566890890870695330
5.88940000000000019043, 	 15.74956302428913268443, 	 12.81158529137882062798, 	 9.99806581391372617418
5.89050000000000029132, 	 15.53224244617411820002, 	 12.69444422948124362449, 	 10.00942183650603389822
5.89160000000000039222, 	 15.31593472633506713976, 	 12.57833249215861748382, 	 10.01976547442599674298
5.89270000000000049312, 	 15.10074019417527679821, 	 12.46331764215030446508, 	 10.02912464245311774391
5.89380000000000059401, 	 14.88675650154941365599, 	 12.34945961019060156616, 	 10.03752615750901711067
5.89490000000000069491, 	 14.67407668873056181269, 	 12.23681077987728471612, 	 10.04499671323771892162
5.89599999999999990763, 	 14.46278789097021721943, 	 12.12541604001088124676, 	 10.05156248252687056777
5.89710000000000000853, 	 14.25297053039984085387, 	 12.01531285910006019435, 	 10.05724793604417577342
5.89820000000000010942, 	 14.04469785420888605643, 	 11.90653143536230373911, 	 10.06207591601238604540
5.89930000000000021032, 	 13.83803578849480153679, 	 11.79909493366082173793, 	 10.06606845380485104613
5.90040000000000031122, 	 13.63304297267643150349, 	 11.69301975759947964661, 	 10.06924729253655925731
5.90150000000000041211, 	 13.42977091288320679041, 	 11.58831587232708670854, 	 10.07163403271525936589
5.90260000000000051301, 	 13.22826420369704258917, 	 11.48498713040797980511, 	 10.07324922490781382578
5.90370000000000061391, 	 13.02856073367386713358, 	 11.38303160561238236426, 	 10.07411253944539097915
5.90480000000000071481, 	 12.83069180246659968248, 	 11.28244195232971769371, 	 10.07424259559993373614
5.90589999999999992752, 	 12.63468233633602544330, 	 11.18320576038883018555, 	 10.07365712921243172673
5.90700000000000002842, 	 12.44055116121635862214, 	 11.08530590330867759974, 	 10.07237355693657931965
5.90810000000000012932, 	 12.24831128754049736074, 	 10.98872087512465078873, 	 10.07040849326108222783
5.90920000000000023022, 	 12.05797019747517140331, 	 10.89342512544369512284, 	 10.06777734219332032239
5.91030000000000033111, 	 11.86953013384618493831, 	 10.79938939829745336851, 	 10.06449427639813620772
5.91140000000000043201, 	 11.68298626914110194264, 	 10.70658106128089492870, 	 10.06057220396929530182
