x [cm], 	 0.69214285714285717077, 	 48.45000000000000284217, 	 96.20785714285715073402
0.00000000000000000000, 	 0.00000000000000000000, 	 0.00000000000000000000, 	 0.00000000000000000000
5.70020000000000059970, 	 -0.42766434903365457831, 	 0.88388994289560229856, 	 4.21996022629953326799
5.70130000000000070060, 	 -0.81662889726625720321, 	 0.71282891196696740455, 	 4.20091081247236086682
5.70239999999999991331, 	 -1.20135050352264660667, 	 0.54607757478482299440, 	 4.18221178281800476384
5.70350000000000001421, 	 -1.58062965450564285597, 	 0.38310184586481554891, 	 4.16371717327797341568
5.70460000000000011511, 	 -1.95337392081819638534, 	 0.22362731029708501906, 	 4.14526989071432083733
5.70570000000000021600, 	 -2.31876453129398285569, 	 0.06749157129291760704, 	 4.12666268632283106399
5.70680000000000031690, 	 -2.67631164134181709358, 	 -0.08551565462018526076, 	 4.10774588240583060639
5.70790000000000041780, 	 -3.02507236338090157446, 	 -0.23586276257634761211, 	 4.08838654610749419049
5.70900000000000051870, 	 -3.36465727669781733411, 	 -0.38398428612616231081, 	 4.06843416918354350287
5.71010000000000061959, 	 -3.69568450751661981002, 	 -0.53006130956204389193, 	 4.04774768255277894724
5.71119999999999983231, 	 -4.01872255217970231200, 	 -0.67412924180287858711, 	 4.02621913226316685552
5.71229999999999993321, 	 -4.33314417510677962753, 	 -0.81621808144875129809, 	 4.00380087044380506001
5.71340000000000003411, 	 -4.63781693102819581043, 	 -0.95635485848895263050, 	 3.98049742190529665109
5.71450000000000013500, 	 -4.93156278475921627802, 	 -1.09455224759829317094, 	 3.95629375706549746283
5.71560000000000023590, 	 -5.21337580990344040544, 	 -1.23081596181226049502, 	 3.93119625651491277907
5.71670000000000033680, 	 -5.48152521066273124006, 	 -1.36518452023471725809, 	 3.90519318743847998476
5.71780000000000043769, 	 -5.73323831336201816811, 	 -1.49785044445678638958, 	 3.87823924409469933394
5.71890000000000053859, 	 -5.96730433586009478830, 	 -1.62926390759408068476, 	 3.85026277717743647955
5.72000000000000063949, 	 -6.18322824836483508903, 	 -1.76028731351410461237, 	 3.82117369322091704475
5.72109999999999985221, 	 -6.38108813130070107178, 	 -1.89193351169182255589, 	 3.79086957648725952907
5.72219999999999995310, 	 -6.56210972751001264669, 	 -2.02500158934575802405, 	 3.75924620297205258623
5.72330000000000005400, 	 -6.72796615909641548825, 	 -2.16012839751312624159, 	 3.72621280295233248125
5.72440000000000015490, 	 -6.87986438452555137957, 	 -2.29768055089846656713, 	 3.69170484004282961621
5.72550000000000025580, 	 -7.01856532529881516069, 	 -2.43770554484063373124, 	 3.65568800944264271635
5.72660000000000035669, 	 -7.14475598181063009662, 	 -2.58002020322900138538, 	 3.61815545935270810318
5.72770000000000045759, 	 -7.25784436813725264415, 	 -2.72390612104760654333, 	 3.57911178713671107587
5.72880000000000055849, 	 -7.35713591515169262891, 	 -2.86870268192646760141, 	 3.53859287253319498845
5.72990000000000065938, 	 -7.44443213710776241498, 	 -3.01378161800880750576, 	 3.49665960162038613745
5.73099999999999987210, 	 -7.52288398162880156406, 	 -3.15817748420822441702, 	 3.45337165496564812983
5.73209999999999997300, 	 -7.58758322175419586131, 	 -3.30082790757961852535, 	 3.40881189197896805609
5.73320000000000007390, 	 -7.63913488154665021312, 	 -3.44064567156107248280, 	 3.36310465605135355815
5.73430000000000017479, 	 -7.68123394211464827208, 	 -3.57661068547671190387, 	 3.31636103863857867324
5.73540000000000027569, 	 -7.71529329130146113158, 	 -3.70784905806436571041, 	 3.26870211755930029085
5.73650000000000037659, 	 -7.74067172145032422748, 	 -3.83365337153337559783, 	 3.22025897381496939431
5.73760000000000047748, 	 -7.75822688848777541892, 	 -3.95349580273690870413, 	 3.17113144098337906840
5.73870000000000057838, 	 -7.77133339702765724155, 	 -4.06700387722296863302, 	 3.12143385747974111410
5.73980000000000067928, 	 -7.78107824009335047322, 	 -4.17385900050583291687, 	 3.07128623998961947095
5.74089999999999989200, 	 -7.78651625168103400654, 	 -4.27363325533211124707, 	 3.02075785525212525684
5.74199999999999999289, 	 -7.78815212208214813217, 	 -4.36566383971725535673, 	 2.96989126626291266575
5.74310000000000009379, 	 -7.78700265478220110538, 	 -4.44908053920372292822, 	 2.91870736118074258769
5.74420000000000019469, 	 -7.78361703247604452827, 	 -4.52291994415964460075, 	 2.86721609772862695564
5.74530000000000029559, 	 -7.77772040253629803885, 	 -4.58622121250335723630, 	 2.81542046065150941558
5.74640000000000039648, 	 -7.76939702504333240540, 	 -4.63822244970736008440, 	 2.76330024157123999018
5.74750000000000049738, 	 -7.75972323686882337057, 	 -4.67868877930245208319, 	 2.71081396237660054993
5.74860000000000059828, 	 -7.74960407161067177384, 	 -4.70804401748161982511, 	 2.65791978955697194564
5.74970000000000069917, 	 -7.73943857203157925539, 	 -4.72706095679734961124, 	 2.60457858287887233928
5.75079999999999991189, 	 -7.73022062513702667985, 	 -4.73639945275260476620, 	 2.55075469870171689379
5.75190000000000001279, 	 -7.72373282710350750335, 	 -4.73644861820351170678, 	 2.49642483206642307181
5.75300000000000011369, 	 -7.72142439748133213584, 	 -4.72749415515013016176, 	 2.44159804285030368476
5.75410000000000021458, 	 -7.72436751033952351264, 	 -4.70994140749222545139, 	 2.38639023885883094778
5.75520000000000031548, 	 -7.73319417140737375149, 	 -4.68415077473991203760, 	 2.33100932878177724561
5.75630000000000041638, 	 -7.74811897715636721529, 	 -4.65103269298171806412, 	 2.27567779494563016129
5.75740000000000051728, 	 -7.76903155927663924274, 	 -4.61146857263358889156, 	 2.22058917528214472270
5.75850000000000061817, 	 -7.79599609601933973835, 	 -4.56614587743678779219, 	 2.16611345433446311759
5.75960000000000071907, 	 -7.82873977804114318246, 	 -4.51546307796881318808, 	 2.11256273051113518946
5.76069999999999993179, 	 -7.86541597267045045072, 	 -4.45957494835448642334, 	 2.06013843743070212966
5.76180000000000003268, 	 -7.90356733571723868437, 	 -4.39857326213529820080, 	 2.00895599681117875690
5.76290000000000013358, 	 -7.94258680924131610368, 	 -4.33265579343933193712, 	 1.95906257306503772675
5.76400000000000023448, 	 -7.98269028487445719833, 	 -4.26220368181685671516, 	 1.91050767851007541331
5.76510000000000033538, 	 -8.02397783627786509442, 	 -4.18776800765293621964, 	 1.86316057139073176785
5.76620000000000043627, 	 -8.06833788222676062674, 	 -4.10999734740541899924, 	 1.81673583342612809943
5.76730000000000053717, 	 -8.11610722130617467940, 	 -4.02956751292271952991, 	 1.77177510290181050578
5.76840000000000063807, 	 -8.16131455697257734982, 	 -3.94714564220532038163, 	 1.72899155788637415299
5.76949999999999985079, 	 -8.19790474827213344611, 	 -3.86333345660827154333, 	 1.68817639290074628100
5.77059999999999995168, 	 -8.22439950583055257027, 	 -3.77860445908187658759, 	 1.64903287517764951531
5.77170000000000005258, 	 -8.24038555448434806294, 	 -3.69329437385954673090, 	 1.61174922925671859630
5.77280000000000015348, 	 -8.24234816089734323441, 	 -3.60760898182177491833, 	 1.57667075091388442232
5.77390000000000025437, 	 -8.22457309801073677136, 	 -3.52165561590388920266, 	 1.54398100961543605081
5.77500000000000035527, 	 -8.18062936927059602965, 	 -3.43558809718449786885, 	 1.51379790493752675040
5.77610000000000045617, 	 -8.10774271491651532529, 	 -3.34964749148310270144, 	 1.48595874660352267327
5.77720000000000055707, 	 -7.99285998528505192695, 	 -3.26409610885636558564, 	 1.46024554392285477178
5.77830000000000065796, 	 -7.83840158423368826845, 	 -3.17928105263538363090, 	 1.43654534833744929045
5.77939999999999987068, 	 -7.64965232294280994552, 	 -3.09559204120964048812, 	 1.41467378594579096251
5.78049999999999997158, 	 -7.42929365364881100220, 	 -3.01344761034397068400, 	 1.39434871073702715272
5.78160000000000007248, 	 -7.16617539265452574426, 	 -2.93332316855608343786, 	 1.37536298903263198845
5.78270000000000017337, 	 -6.85053121744200055332, 	 -2.85570282436352584909, 	 1.35755543371728459867
5.78380000000000027427, 	 -6.46897581529117537968, 	 -2.78109245442980057561, 	 1.34068724831929109165
5.78490000000000037517, 	 -6.01743008159450365469, 	 -2.71021096063058442027, 	 1.32465203399195563527
5.78600000000000047606, 	 -5.53029168327857512111, 	 -2.64390925333401938246, 	 1.30922992130701087987
5.78710000000000057696, 	 -5.03641092367646159289, 	 -2.58274445752336978543, 	 1.29420099351407991151
5.78820000000000067786, 	 -4.54253466997019383911, 	 -2.52662092002310778582, 	 1.27971893714906803652
5.78929999999999989058, 	 -4.05631383685841395703, 	 -2.47488018133799636544, 	 1.26560109068395520993
5.79039999999999999147, 	 -3.57571078199792324881, 	 -2.42694902302010007134, 	 1.25192490151061308623
5.79150000000000009237, 	 -3.09270805260813563820, 	 -2.38283316497515240684, 	 1.23878887389216441051
5.79260000000000019327, 	 -2.60697485406851070522, 	 -2.34381821534407297491, 	 1.22604267481674589213
5.79370000000000029416, 	 -2.12061483090555968900, 	 -2.31041919812414597857, 	 1.21355972273881995704
5.79480000000000039506, 	 -1.63233816573440226882, 	 -2.28227334076029331200, 	 1.20132484990141152892
5.79590000000000049596, 	 -1.14140780973661870590, 	 -2.25846496768990956383, 	 1.18917472912097887949
5.79700000000000059686, 	 -0.64878927467633262793, 	 -2.23738093531000625802, 	 1.17697344080471766326
5.79810000000000069775, 	 -0.15523714441367020278, 	 -2.21729600948406657679, 	 1.16466588626411149399
5.79919999999999991047, 	 0.33860564692202999026, 	 -2.19857727539189973243, 	 1.15222870209120498153
5.80030000000000001137, 	 0.83271261701081855655, 	 -2.18056304377373066927, 	 1.13964165079429902150
5.80140000000000011227, 	 1.32717702491494482508, 	 -2.15889424303917465409, 	 1.12686395175196607532
5.80250000000000021316, 	 1.82183890450666496896, 	 -2.12693890172748423240, 	 1.11385700222053407593
5.80360000000000031406, 	 2.31712690623852202165, 	 -2.07686211015075627984, 	 1.10058225853027247254
5.80470000000000041496, 	 2.81402999728466385321, 	 -2.00306733603565634283, 	 1.08698662189877226503
5.80580000000000051585, 	 3.31339359759496820956, 	 -1.89414935227942193841, 	 1.07299103827662034583
5.80690000000000061675, 	 3.81616487247134728023, 	 -1.74906076716553360306, 	 1.05848180970030436576
5.80800000000000071765, 	 4.32353008864540999667, 	 -1.58957793365635713378, 	 1.04333641260466647438
5.80909999999999993037, 	 4.83673569250173240874, 	 -1.40947420632352682368, 	 1.02740401656571167521
5.81020000000000003126, 	 5.35712821161931973535, 	 -1.20698832236376163429, 	 1.01051855044970029240
5.81130000000000013216, 	 5.88622869224496358953, 	 -0.97852325611943624661, 	 0.99253192381345445305
5.81240000000000023306, 	 6.42532185462392835262, 	 -0.71538726353867077012, 	 0.97331906396436196349
5.81350000000000033396, 	 6.97517155788180431841, 	 -0.40564602214696282578, 	 0.95279957096269607408
5.81460000000000043485, 	 7.53610825940647810484, 	 -0.03947158771296978980, 	 0.93096678765630025421
5.81570000000000053575, 	 8.10779833092582791210, 	 0.38450589586020145205, 	 0.90788202979660515002
5.81680000000000063665, 	 8.68936247180808152279, 	 0.83899522678102178563, 	 0.88375392228449112242
5.81789999999999984936, 	 9.27966056010779283270, 	 1.27706901406442629998, 	 0.85883982318252549693
5.81899999999999995026, 	 9.87571745156898295193, 	 1.70051694324911784051, 	 0.83339947074907350100
5.82010000000000005116, 	 10.47268708465015407683, 	 2.11453383059949162615, 	 0.80771938150353606023
5.82120000000000015206, 	 11.06702602927056311444, 	 2.52240035354639369203, 	 0.78177994700857367238
5.82230000000000025295, 	 11.65641290384213846210, 	 2.92626921320247390668, 	 0.75535671082582023228
5.82340000000000035385, 	 12.23925098911653286393, 	 3.32754981397802573895, 	 0.72826668521429072101
5.82450000000000045475, 	 12.81458833622438220345, 	 3.72710255945949153755, 	 0.69986987589744376059
5.82560000000000055564, 	 13.38203798464429006287, 	 4.12546030184240120064, 	 0.66956634780010360064
5.82670000000000065654, 	 13.94082512481483071554, 	 4.52276645580530267665, 	 0.64051568298000705060
5.82779999999999986926, 	 14.49041003478462918963, 	 4.91905140218141845310, 	 0.61607568345315011360
5.82889999999999997016, 	 15.03075677052265213263, 	 5.31437422262756964386, 	 0.59564631210002183526
5.83000000000000007105, 	 15.56192592143419517470, 	 5.70898993171345470188, 	 0.57897238735429357170
5.83110000000000017195, 	 16.08406922385069393044, 	 6.10341005884247955748, 	 0.57056029335623725807
5.83220000000000027285, 	 16.59758339860849574166, 	 6.49812978135523966472, 	 0.57204584252308432468
5.83330000000000037375, 	 17.10275024785162045760, 	 6.89377314887960768175, 	 0.58448526934246813891
5.83440000000000047464, 	 17.59891922862587065879, 	 7.29122045708692656518, 	 0.60051411472222682164
5.83550000000000057554, 	 18.08753853958514312694, 	 7.69156733821552851538, 	 0.62321636763911003598
5.83660000000000067644, 	 18.56924447264657729306, 	 8.09607010469103371975, 	 0.65183980659061890872
5.83769999999999988916, 	 19.04468541729514186045, 	 8.50603050672095228890, 	 0.68529608366043193168
5.83879999999999999005, 	 19.51502671778445119344, 	 8.92283420757795120437, 	 0.72928469683195285000
5.83990000000000009095, 	 19.98188261594803805110, 	 9.34796777868252881660, 	 0.78792530257791748571
5.84100000000000019185, 	 20.44583327633344538299, 	 9.78299824180166588405, 	 0.86196557247582339389
5.84210000000000029274, 	 20.90769979010751455917, 	 10.22942060676442466161, 	 0.94943906677922640380
5.84320000000000039364, 	 21.36869661185757607313, 	 10.68844987861469597590, 	 1.04766132654701182858
5.84430000000000049454, 	 21.83008750635897499137, 	 11.16081357156157949362, 	 1.15693820091044985432
5.84540000000000059543, 	 22.29276762216899854252, 	 11.64657571791154033747, 	 1.27803778067173157140
5.84650000000000069633, 	 22.75701850777567258888, 	 12.14504277945796140159, 	 1.39640556080413813511
5.84759999999999990905, 	 23.22257274228890011614, 	 12.65486994772731854653, 	 1.50618840706825851683
5.84870000000000000995, 	 23.68884788300345434209, 	 13.17421075739234836988, 	 1.61007473660678535055
5.84980000000000011084, 	 24.15517233976137845275, 	 13.69698560352107286064, 	 1.71149102433966193715
5.85090000000000021174, 	 24.62111600185472681801, 	 14.21841068856235423823, 	 1.81201753973721957358
5.85200000000000031264, 	 25.08641496159050632286, 	 14.73794462257649051651, 	 1.91256728437552703248
5.85310000000000041354, 	 25.55086131890681144796, 	 15.25537465189811570099, 	 2.01314766434690106678
5.85420000000000051443, 	 26.01432467248981694752, 	 15.76976408280309982501, 	 2.11356544755973008165
5.85530000000000061533, 	 26.47671730260091393916, 	 16.27957116670511794609, 	 2.21384304916145291386
5.85640000000000071623, 	 26.93795099488496447293, 	 16.78248405858819936043, 	 2.31403413054999163023
5.85749999999999992895, 	 27.39795246507302906025, 	 17.27449115239642551956, 	 2.41417260687545542908
5.85860000000000002984, 	 27.85669770070214212865, 	 17.75344516426665819608, 	 2.51431769217090339552
5.85970000000000013074, 	 28.31415318187971763564, 	 18.21718867466000091326, 	 2.61462393065180620511
5.86080000000000023164, 	 28.77021768431930937027, 	 18.66379922307049454844, 	 2.71521384368460427794
5.86190000000000033253, 	 29.22473074567591666550, 	 19.09207739923289182116, 	 2.81623319303276042902
5.86300000000000043343, 	 29.67743140969644599636, 	 19.50175044525666478989, 	 2.91791429949267788757
5.86410000000000053433, 	 30.12791404499073877332, 	 19.89311119921891801710, 	 3.02053938165856905584
5.86520000000000063523, 	 30.57564884935518989550, 	 20.26628917731741097441, 	 3.12441317624312553392
5.86629999999999984794, 	 31.02008296078612303859, 	 20.62061424479940185961, 	 3.22986359729191363499
5.86739999999999994884, 	 31.46076669456634178346, 	 20.95443730338658028245, 	 3.33724699883515851795
5.86850000000000004974, 	 31.89739857461807659433, 	 21.26548243390679715503, 	 3.44693504458891952780
5.86960000000000015064, 	 32.32969727091533940211, 	 21.55134447444917000780, 	 3.55928175816963321410
5.87070000000000025153, 	 32.75752050579864516067, 	 21.80970678887048208594, 	 3.67458806903440660108
5.87180000000000035243, 	 33.18083507508864471447, 	 22.03897457780195523469, 	 3.79307811031256436607
5.87290000000000045333, 	 33.59966761826804315660, 	 22.24006707769314772349, 	 3.91487235110163256380
5.87400000000000055422, 	 34.01417548548451463830, 	 22.41792290239703433485, 	 4.03994817428802210912
5.87510000000000065512, 	 34.42425275708358611837, 	 22.57985306941117897850, 	 4.16843580097987054245
5.87619999999999986784, 	 34.82935558805980491570, 	 22.73292526147409731152, 	 4.30028771267354681385
5.87729999999999996874, 	 35.22900142230982822866, 	 22.88548068096024579177, 	 4.43274685753286412648
5.87840000000000006963, 	 35.62283771156141654046, 	 23.04210798711185859133, 	 4.56328302350733583381
5.87950000000000017053, 	 36.01121436068177672496, 	 23.20361208196498736811, 	 4.69167116579609011495
5.88060000000000027143, 	 36.39355296293889097115, 	 23.36927163432557463807, 	 4.81829410589124762510
5.88170000000000037232, 	 36.77041303200982014232, 	 23.53778733070466344657, 	 4.94344430090507369613
5.88280000000000047322, 	 37.14193642219925095560, 	 23.70800397731285613645, 	 5.06719380353437109932
5.88390000000000057412, 	 37.50686537796336494921, 	 23.87915361042698947358, 	 5.18959330001978713653
5.88500000000000067502, 	 37.86366021549438443117, 	 24.05073722159123050801, 	 5.31073705217631086839
5.88609999999999988773, 	 38.20997593642677969683, 	 24.22235467972547340310, 	 5.43073157459188582408
5.88719999999999998863, 	 38.54233794793844225524, 	 24.39369703321594329282, 	 5.54967067810396930128
5.88830000000000008953, 	 38.85575090561272304512, 	 24.56447397944241473056, 	 5.66768371670684434349
5.88940000000000019043, 	 39.14353371439141682231, 	 24.73421554598066762765, 	 5.78490387552538187776
5.89050000000000029132, 	 39.39825507290406392258, 	 24.90220191423887996507, 	 5.90144268554974704699
5.89160000000000039222, 	 39.61845916666858613553, 	 25.06752288232641845411, 	 6.01747721184559747343
5.89270000000000049312, 	 39.80194310524149869934, 	 25.22909518963815500570, 	 6.13320224926204193849
5.89380000000000059401, 	 39.94781361674350961266, 	 25.38561741381335679080, 	 6.24880205236619712394
5.89490000000000069491, 	 40.05437464750460918594, 	 25.53568382767452504822, 	 6.36444771465848369019
5.89599999999999990763, 	 40.11792935045477292988, 	 25.67794093532367583066, 	 6.48034426764405857568
5.89710000000000000853, 	 40.13747410731792797378, 	 25.81111977259941880902, 	 6.59669827390576113402
5.89820000000000010942, 	 40.11162034313019120191, 	 25.93393466415766823729, 	 6.71364757693251945625
5.89930000000000021032, 	 40.04124963325636343825, 	 26.04521395787038784420, 	 6.83136732002328361801
5.90040000000000031122, 	 39.92499230220652606249, 	 26.14390674464815234046, 	 6.95003569661684306169
5.90150000000000041211, 	 39.75449442846770153892, 	 26.22908817576773543578, 	 7.06978465398631250594
5.90260000000000051301, 	 39.52873271196816773454, 	 26.29992988160751110627, 	 7.19068373499769641910
5.90370000000000061391, 	 39.25282052287711564986, 	 26.35615395058851362364, 	 7.31272434297494999811
5.90480000000000071481, 	 38.93297067631348085115, 	 26.39873551084753700025, 	 7.43583731622335086797
5.90589999999999992752, 	 38.58088838037024004279, 	 26.42879224888715583575, 	 7.55982908008250920062
5.90700000000000002842, 	 38.20701638077532891202, 	 26.44759799467422212160, 	 7.68434085967780955428
5.90810000000000012932, 	 37.81848057690301345701, 	 26.45708291987295979197, 	 7.80889236902220673642
5.90920000000000023022, 	 37.42122125453733616496, 	 26.45963966397709299372, 	 7.93335550081704532488
5.91030000000000033111, 	 37.02039779088421056485, 	 26.45761302945662762909, 	 8.05773444653617154643
