x [cm], 	 0.25592592592592589007, 	 34.54999999999999715783, 	 68.84407407407405798949
0.00000000000000000000, 	 0.00000000000000000000, 	 0.00000000000000000000, 	 0.00000000000000000000
5.70020000000000059970, 	 7.24173193524672420551, 	 14.04609535029438838194, 	 18.43634703348040559945
5.70130000000000070060, 	 7.25593580213313771310, 	 14.09764374742677262020, 	 18.42550196950805485585
5.70239999999999991331, 	 7.28394430435006423608, 	 14.13648748420322398545, 	 18.41454134108003160009
5.70350000000000001421, 	 7.33050767948841741628, 	 14.15920716491257458358, 	 18.40269609415338081249
5.70460000000000011511, 	 7.39913243599951275797, 	 14.16633969744952636916, 	 18.38955389982011467964
5.70570000000000021600, 	 7.47929531215963638857, 	 14.15554377343616643259, 	 18.37459872782726222340
5.70680000000000031690, 	 7.55726280750830792243, 	 14.12664683001834475817, 	 18.35737404006813378032
5.70790000000000041780, 	 7.66127041774044315048, 	 14.08450705446335149418, 	 18.33720310424517663250
5.70900000000000051870, 	 7.86564871020633127330, 	 14.02658464952663308623, 	 18.31502175604295246103
5.71010000000000061959, 	 8.20393947521063893191, 	 13.95650031467615725944, 	 18.29074749796098586785
5.71119999999999983231, 	 8.62855239435417864513, 	 13.87799410585712678312, 	 18.26489939671245821273
5.71229999999999993321, 	 9.11282086748204456228, 	 13.79497795578676644368, 	 18.23789573437889544039
5.71340000000000003411, 	 9.60936036736090848365, 	 13.70957247622536279152, 	 18.20990694087196004602
5.71450000000000013500, 	 10.10597988129502056154, 	 13.62322033635152251918, 	 18.18120700115578358691
5.71560000000000023590, 	 10.60497951717082898426, 	 13.53870536185855755207, 	 18.15206508130258455935
5.71670000000000033680, 	 11.10748283972347572046, 	 13.45929220860075048449, 	 18.12242584533878897446
5.71780000000000043769, 	 11.60840931505439321825, 	 13.38645655390690158981, 	 18.09213614482576559794
5.71890000000000053859, 	 12.10856046273062958107, 	 13.31999369066234528702, 	 18.06114214543881502095
5.72000000000000063949, 	 12.61149229163259377628, 	 13.25912737916346806344, 	 18.02965039562220539437
5.72109999999999985221, 	 13.11703501621503065167, 	 13.20212225977572551017, 	 17.99775401581149125718
5.72219999999999995310, 	 13.62465049951488538227, 	 13.14717042157835535932, 	 17.96547186691780595424
5.72330000000000005400, 	 14.14151947843301293517, 	 13.09384640104899055757, 	 17.93294197392102873323
5.72440000000000015490, 	 14.68188316627710499063, 	 13.04189741130504032185, 	 17.90029481364407004662
5.72550000000000025580, 	 15.25437223076560577795, 	 12.98970972563568793134, 	 17.86743963467683116164
5.72660000000000035669, 	 15.85662065882283933149, 	 12.93600206532113894298, 	 17.83413644983193790949
5.72770000000000045759, 	 16.47765126937775548299, 	 12.88340363436680391374, 	 17.80043367846863944237
5.72880000000000055849, 	 17.10585654108729514178, 	 12.83617672196257508688, 	 17.76679241091749616999
5.72990000000000065938, 	 17.72673016147024682709, 	 12.79146795632056310410, 	 17.73352346138192459080
5.73099999999999987210, 	 18.32602543669493044831, 	 12.73375031711677074497, 	 17.70067650256684643750
5.73209999999999997300, 	 18.89711874086545506657, 	 12.69459272880827249708, 	 17.66810710162523889721
5.73320000000000007390, 	 19.43749667392473057248, 	 12.74967779134609813241, 	 17.63585357903410155700
5.73430000000000017479, 	 19.94449646801815134722, 	 12.86867424495880207758, 	 17.60408534799429958184
5.73540000000000027569, 	 20.41803218691264376616, 	 13.06807160613503171476, 	 17.57290094009061576230
5.73650000000000037659, 	 20.86197189548719066465, 	 13.38440811040678113386, 	 17.54199863290808991678
5.73760000000000047748, 	 21.28208451096491415910, 	 13.78151462339594246487, 	 17.51099322280059666923
5.73870000000000057838, 	 21.68399311506250981552, 	 14.21985469185575290396, 	 17.47956383793392021175
5.73980000000000067928, 	 22.07354878189360292140, 	 14.65867652161819378875, 	 17.44778021994559225050
5.74089999999999989200, 	 22.45706639085842581949, 	 15.09739222369424638259, 	 17.41590234174937279477
5.74199999999999999289, 	 22.84134706668129766172, 	 15.53620527479226431922, 	 17.38437616887775050145
5.74310000000000009379, 	 23.23195021632895773678, 	 15.97437342005224891750, 	 17.35354761822502567270
5.74420000000000019469, 	 23.63284126697682907547, 	 16.41178768404849108720, 	 17.32359339222486838139
5.74530000000000029559, 	 24.04445687969113620852, 	 16.84718939787710567657, 	 17.29453672094394534042
5.74640000000000039648, 	 24.46560148243818488822, 	 17.28098624261921045786, 	 17.26658372896844539923
5.74750000000000049738, 	 24.89294168723016298372, 	 17.71613317400035469973, 	 17.24021495922895752528
5.74860000000000059828, 	 25.32212405612754935191, 	 18.15676544121650337615, 	 17.21540631841070378982
5.74970000000000069917, 	 25.74881988647454633679, 	 18.60964220718257777776, 	 17.19144290768526062152
5.75079999999999991189, 	 26.17025927618082192794, 	 19.08366083968810755778, 	 17.16798376673787984714
5.75190000000000001279, 	 26.58443173188263486395, 	 19.58662029723974740136, 	 17.14646070991221193935
5.75300000000000011369, 	 26.99082160598503676852, 	 20.11904743779727766650, 	 17.12714364682994272471
5.75410000000000021458, 	 27.38903034730736152369, 	 20.67498677820246300030, 	 17.10717750163393802154
5.75520000000000031548, 	 27.77947949968146090782, 	 21.23516359007055953612, 	 17.07927042309722409641
5.75630000000000041638, 	 28.16390850303411497180, 	 21.78710153541082661377, 	 17.05433198408587713857
5.75740000000000051728, 	 28.54492495609338931217, 	 22.32565443338061683676, 	 17.04923950904944263129
5.75850000000000061817, 	 28.92446206241566741824, 	 22.84755788599462178468, 	 17.06800738319323684777
5.75960000000000071907, 	 29.30193885471611636717, 	 23.35170050628904192536, 	 17.09514803581607012006
5.76069999999999993179, 	 29.67838245449021172817, 	 23.83727573843246716478, 	 17.13184224032523417236
5.76180000000000003268, 	 30.05813262230174132128, 	 24.30519240710468409361, 	 17.19039902213356896254
5.76290000000000013358, 	 30.44969217848283093986, 	 24.75752562097479270165, 	 17.27978869323471400321
5.76400000000000023448, 	 30.86302294626563380575, 	 25.19779752353305468660, 	 17.37438524510220716479
5.76510000000000033538, 	 31.30408249229842709838, 	 25.63056083548615760037, 	 17.45537205044285400390
5.76620000000000043627, 	 31.77422078021490392530, 	 26.06015363123881201091, 	 17.53496360226244021874
5.76730000000000053717, 	 32.27621105236959664353, 	 26.48962809076853730517, 	 17.61432034168056404155
5.76840000000000063807, 	 32.81015795213281904807, 	 26.92074859496299410466, 	 17.69290004121673831605
5.76949999999999985079, 	 33.36654505971974060685, 	 27.35634790272311178683, 	 17.77066042974895765383
5.77059999999999995168, 	 33.93432688102740968361, 	 27.79831587824390126684, 	 17.84787991308237664612
5.77170000000000005258, 	 34.50311991358496754856, 	 28.24577572604719222227, 	 17.92512854153643786503
5.77280000000000015348, 	 35.06406047543219983709, 	 28.69624006797031867677, 	 18.00325361108346555739
5.77390000000000025437, 	 35.61762632298339070758, 	 29.14727454188761157639, 	 18.08332314978867216837
5.77500000000000035527, 	 36.15935469109512467867, 	 29.59526625679289324466, 	 18.16742631709036359666
5.77610000000000045617, 	 36.68667403292823792071, 	 30.03849547909337402984, 	 18.25810428771455562469
5.77720000000000055707, 	 37.20102315577234008970, 	 30.47451586078187446560, 	 18.35670872411729703799
5.77830000000000065796, 	 37.70413899857866368848, 	 30.89921021924635624600, 	 18.46313057632425369547
5.77939999999999987068, 	 38.20124983215541192294, 	 31.31415933298822906750, 	 18.57366980405029366352
5.78049999999999997158, 	 38.70063702018939721938, 	 31.72910990589142699037, 	 18.67955541238092465051
5.78160000000000007248, 	 39.21166084864230327867, 	 32.14578872029613165751, 	 18.78170287033847785096
5.78270000000000017337, 	 39.74468926842486382611, 	 32.55381901315272585862, 	 18.88001915985098477790
5.78380000000000027427, 	 40.30678934223377751778, 	 32.93016802048423841143, 	 18.97427909024069592192
5.78490000000000037517, 	 40.90272799080442212016, 	 33.26145135764972593506, 	 19.06443891453101713296
5.78600000000000047606, 	 41.53083989693482891425, 	 33.54978718140220195210, 	 19.15069506589352599235
5.78710000000000057696, 	 42.18316544355252517562, 	 33.79922612351470689873, 	 19.23366765468210815015
5.78820000000000067786, 	 42.84854941093050229028, 	 34.00180503045628199743, 	 19.31410276372398016065
5.78929999999999989058, 	 43.51739772889307289461, 	 34.15733094627847776792, 	 19.39289734707059409402
5.79039999999999999147, 	 44.18300731318438323569, 	 34.28853855870497824299, 	 19.47102308182596885899
5.79150000000000009237, 	 44.84093713550419835201, 	 34.42673574089266708143, 	 19.54917674741897926083
5.79260000000000019327, 	 45.48854093351135929879, 	 34.59284026898447450549, 	 19.62802223952024860409
5.79370000000000029416, 	 46.12364539752850589593, 	 34.79094923113110837676, 	 19.70825348038663804573
5.79480000000000039506, 	 46.74414837267931943643, 	 35.00990280428234058263, 	 19.79057880340274877540
5.79590000000000049596, 	 47.35083347681080567781, 	 35.23090932338766378962, 	 19.87522363080799792101
5.79700000000000059686, 	 47.94650316737428141778, 	 35.44763846701194864863, 	 19.96184362526605937660
5.79810000000000069775, 	 48.53537570694138025829, 	 35.65633747326958769008, 	 20.04977674376267060552
5.79919999999999991047, 	 49.12180688657118565743, 	 35.85247946339680424899, 	 20.13782778185726840547
5.80030000000000001137, 	 49.71087193358838618451, 	 36.03130382678888565806, 	 20.22544833777371664496
5.80140000000000011227, 	 50.30821610287222256375, 	 36.18898844334055553418, 	 20.31212678907778368398
5.80250000000000021316, 	 50.91698012386291338771, 	 36.32266639348825520983, 	 20.39767050210766541340
5.80360000000000031406, 	 51.53257469375352428642, 	 36.43134849460906110608, 	 20.48232936839323059530
5.80470000000000041496, 	 52.14859284920145654496, 	 36.51752256100113669390, 	 20.56600069914816231176
5.80580000000000051585, 	 52.76510987067179314636, 	 36.59404562242754366252, 	 20.64812659977044972948
5.80690000000000061675, 	 53.39097162963655307522, 	 36.68062443442038045305, 	 20.72832874444215534027
5.80800000000000071765, 	 54.03227351679046819299, 	 36.79857680801208630328, 	 20.80682305644202045869
5.80909999999999993037, 	 54.67061186749894119430, 	 36.96069094735026538956, 	 20.88425907075636445143
5.81020000000000003126, 	 55.27919713152644476395, 	 37.16872679073937035810, 	 20.96131172416411914128
5.81130000000000013216, 	 55.83128054328695810682, 	 37.41909302689983007895, 	 21.03928650676389366936
5.81240000000000023306, 	 56.31003489367711267732, 	 37.70218654521539036750, 	 21.11930133504971252023
5.81350000000000033396, 	 56.70682847482607513712, 	 38.00200824734066173960, 	 21.20328557630153909486
5.81460000000000043485, 	 57.00032327458200143155, 	 38.30941364100354462607, 	 21.29370688352494767059
5.81570000000000053575, 	 57.17284537897175056287, 	 38.61772148092732948044, 	 21.39202898072438330246
5.81680000000000063665, 	 57.23927427398898970523, 	 38.92068974096897449044, 	 21.49829344376558282192
5.81789999999999984936, 	 57.22571443290273407456, 	 39.21330130790945389663, 	 21.61099626397658468591
5.81899999999999995026, 	 57.17279828346399028760, 	 39.49273223661308662713, 	 21.72976044889072255728
5.82010000000000005116, 	 57.11181106283112995925, 	 39.75818306627490272831, 	 21.84759435347246281367
5.82120000000000015206, 	 57.05800217186317979667, 	 40.01069695584759955409, 	 21.96201219874132704035
5.82230000000000025295, 	 57.01109368701786195288, 	 40.25323020798397521958, 	 22.07336312264432010011
5.82340000000000035385, 	 56.97168961220535265966, 	 40.49058713523830732584, 	 22.18095475232711777380
5.82450000000000045475, 	 56.93959269623532293281, 	 40.72892564395095149621, 	 22.28464502825969972832
5.82560000000000055564, 	 56.91330099052066771037, 	 40.97483125374315449108, 	 22.38517768638168448092
5.82670000000000065654, 	 56.88995345361403366269, 	 41.23413935683049658110, 	 22.48360894335369764008
5.82779999999999986926, 	 56.86707903788321516458, 	 41.50723561656191407110, 	 22.58117102713048396367
5.82889999999999997016, 	 56.83811358320055262539, 	 41.79010371053249883744, 	 22.67939066577816831227
5.83000000000000007105, 	 56.79011720212385938567, 	 42.08083229853167495094, 	 22.77997859270923797226
5.83110000000000017195, 	 56.70556394456161797279, 	 42.38569152817048291126, 	 22.88495363401208848586
5.83220000000000027285, 	 56.57345401302739418270, 	 42.70235624697884446732, 	 22.99689071997777745082
5.83330000000000037375, 	 56.40627023246504023746, 	 43.01516801276764567774, 	 23.11798118590397521643
5.83440000000000047464, 	 56.22508276420519734984, 	 43.30616012571422146493, 	 23.24868888992596538401
5.83550000000000057554, 	 56.04563728473037542699, 	 43.58114424650693052854, 	 23.38749718372516639420
5.83660000000000067644, 	 55.87614254914135614172, 	 43.82335884724034258397, 	 23.53217795656539124138
5.83769999999999988916, 	 55.72485333064959434068, 	 44.00907153286825490568, 	 23.67622082236835723279
5.83879999999999999005, 	 55.59770425661599091427, 	 44.13586358771117801325, 	 23.81796153258555293064
5.83990000000000009095, 	 55.49705273417287543225, 	 44.19650932601506809760, 	 23.95724211922319213386
5.84100000000000019185, 	 55.42531416902022556314, 	 44.19791618398240728993, 	 24.09318711611294361319
5.84210000000000029274, 	 55.38531355952097356976, 	 44.15030352621821663206, 	 24.22547618710125050256
5.84320000000000039364, 	 55.37602779442414657751, 	 44.06336856097741616622, 	 24.35442103684728465396
5.84430000000000049454, 	 55.39399390296428293823, 	 43.94634144478830961589, 	 24.48080095309363102274
5.84540000000000059543, 	 55.43074488514745468137, 	 43.80932486331644071242, 	 24.60554083346876197425
5.84650000000000069633, 	 55.47492954750254767760, 	 43.66381387673533254201, 	 24.72982022328456963578
5.84759999999999990905, 	 55.51782020038978515686, 	 43.52312601875274111762, 	 24.85497694560146086928
5.84870000000000000995, 	 55.55115554765766461287, 	 43.39245785940777722089, 	 24.98219756922766876528
5.84980000000000011084, 	 55.56920779347436933904, 	 43.27441137497143586188, 	 25.11260910841221161149
5.85090000000000021174, 	 55.56958700843492238164, 	 43.17188734610483891174, 	 25.24694609735076511470
5.85200000000000031264, 	 55.55271604595812107164, 	 43.08712613554749282230, 	 25.38495850679640497560
5.85310000000000041354, 	 55.52382564615224680438, 	 43.01229418382350644379, 	 25.52443807924198537762
5.85420000000000051443, 	 55.48850312113947325088, 	 42.93135825949197226237, 	 25.66589511603313766841
5.85530000000000061533, 	 55.45232694271368956151, 	 42.83378731889597901272, 	 25.81331818434955849284
5.85640000000000071623, 	 55.42120726468848346258, 	 42.71290468187232391983, 	 25.95895175038106827969
5.85749999999999992895, 	 55.40115058530629710276, 	 42.56912417677711601982, 	 26.09574978410619650049
5.85860000000000002984, 	 55.39797821644808806241, 	 42.40237303544101621355, 	 26.23514801612164504263
5.85970000000000013074, 	 55.41600150903359889298, 	 42.21238289584117353570, 	 26.36195709212316629078
5.86080000000000023164, 	 55.45610041912496512850, 	 41.99935253884608243879, 	 26.47386877038073649260
5.86190000000000033253, 	 55.51444483628670667485, 	 41.76763631964308842726, 	 26.57463703004876265368
5.86300000000000043343, 	 55.58568720972010623882, 	 41.52508165827169506201, 	 26.66109274732998812851
5.86410000000000053433, 	 55.66119451451796606989, 	 41.28182293989305406967, 	 26.73368380566186175429
5.86520000000000063523, 	 55.72925569731316386424, 	 41.05570216487563328656, 	 26.79682519297311671380
5.86629999999999984794, 	 55.77876934067461434097, 	 40.85589073930665904300, 	 26.85392687900905528409
5.86739999999999994884, 	 55.79894330195904927905, 	 40.68791783371375458955, 	 26.90829926458295062730
5.86850000000000004974, 	 55.78091897950147881602, 	 40.55060089544291201946, 	 26.96225111371940030836
5.86960000000000015064, 	 55.71853688870011467316, 	 40.43853619958136391688, 	 27.01722224113632364606
5.87070000000000025153, 	 55.61030050735837448883, 	 40.34295720642331417594, 	 27.07373630608168113554
5.87180000000000035243, 	 55.45471076582830960433, 	 40.25384609917482947594, 	 27.13155693874582041758
5.87290000000000045333, 	 55.25951866687194780070, 	 40.16268596803467261225, 	 27.19026891232101661444
5.87400000000000055422, 	 55.04823593243713020229, 	 40.06218316031731063731, 	 27.24992537025309147225
5.87510000000000065512, 	 54.84911914732357729463, 	 39.94743363814549041990, 	 27.31136615143072532419
5.87619999999999986784, 	 54.66703205255074493607, 	 39.81595338125895722214, 	 27.37533194004497616447
5.87729999999999996874, 	 54.50180696129620372403, 	 39.66750180469850306508, 	 27.43718418244139556350
5.87840000000000006963, 	 54.35075961216247719676, 	 39.50422229892296854814, 	 27.49397357934396524115
5.87950000000000017053, 	 54.20759851082756597407, 	 39.33104807086692744633, 	 27.54517245547894077617
5.88060000000000027143, 	 54.06366395453564877016, 	 39.15478974697649761083, 	 27.59161366132048698319
5.88170000000000037232, 	 53.90938271661951830538, 	 38.97963902678688441483, 	 27.63492981293050831937
5.88280000000000047322, 	 53.73601812771549646186, 	 38.81225967144801813902, 	 27.67649177135421112439
5.88390000000000057412, 	 53.53591317062302579188, 	 38.66422802638447109302, 	 27.71785782514789886477
5.88500000000000067502, 	 53.30115601317791629299, 	 38.54514148118828131828, 	 27.76049252256949628759
5.88609999999999988773, 	 53.02473208743222699013, 	 38.46376890926469371834, 	 27.80549314225842749693
5.88719999999999998863, 	 52.70214024535045638231, 	 38.42444703393433513838, 	 27.85408856575958225221
5.88830000000000008953, 	 52.32907927754715160518, 	 38.41753476684114332329, 	 27.90698185427905997358
5.88940000000000019043, 	 51.90208948165781066564, 	 38.43865717821243066510, 	 27.96462082106125635050
5.89050000000000029132, 	 51.42907579202405088381, 	 38.48425105746977692434, 	 28.02771298610878147883
5.89160000000000039222, 	 50.94250479362406025530, 	 38.54533358460005132429, 	 28.09670067080655186942
5.89270000000000049312, 	 50.46241400507233976214, 	 38.60821632864402630503, 	 28.17094717378435220212
5.89380000000000059401, 	 49.99212268226413868888, 	 38.66163038003462304459, 	 28.24890212550239354528
5.89490000000000069491, 	 49.53164263658091215348, 	 38.69677453265470035149, 	 28.32684592194449635372
5.89599999999999990763, 	 49.07852208854111353276, 	 38.71086799119812127401, 	 28.40301364442104770092
5.89710000000000000853, 	 48.62876525498518986979, 	 38.70897306493839096220, 	 28.47659053201002521405
5.89820000000000010942, 	 48.17722368607100236204, 	 38.70149326780750698163, 	 28.54700605910873889570
5.89930000000000021032, 	 47.71843031955675229483, 	 38.69646515626494220896, 	 28.61433172008156944344
5.90040000000000031122, 	 47.24758627331247140546, 	 38.69681102489069246531, 	 28.67910743562320519118
5.90150000000000041211, 	 46.76002683136019300036, 	 38.69799426760421567906, 	 28.74209242736881364522
5.90260000000000051301, 	 46.25264877410528185919, 	 38.69686612874857445377, 	 28.80431789859577662583
5.90370000000000061391, 	 45.72272542011548068785, 	 38.69277370559271389538, 	 28.86710038261382749170
5.90480000000000071481, 	 45.16757192846706914224, 	 38.68829454474593632085, 	 28.93165782665152718778
5.90589999999999992752, 	 44.58744682125292513319, 	 38.68065728569089145594, 	 28.99915804741766578445
5.90700000000000002842, 	 43.98515336882636006521, 	 38.66743749996322065954, 	 29.07057146629118093983
5.90810000000000012932, 	 43.35868119610189808100, 	 38.64451649549896927738, 	 29.14641580030033907178
