x [cm], 	 0.40000000000000002220, 	 2.00000000000000000000, 	 3.60000000000000008882
0.00000000000000000000, 	 0.00000000000000000000, 	 0.00000000000000000000, 	 0.00000000000000000000
5.70020000000000059970, 	 4.51474857362226345003, 	 6.61054182682388091763, 	 8.73569094597620576792
5.70130000000000070060, 	 5.67672142852605077223, 	 7.21083901322914933019, 	 9.05716839761476677495
5.70239999999999991331, 	 8.28682640803923575845, 	 9.19821377195189526788, 	 10.54178664054112779525
5.70350000000000001421, 	 12.12029414578803887537, 	 12.52194989145542436404, 	 13.33395783965661607340
5.70460000000000011511, 	 16.77620082850650362616, 	 16.79284518066701181738, 	 17.08673031468957503876
5.70570000000000021600, 	 21.95547582825938093265, 	 21.72076860810683385239, 	 21.54671823297602983871
5.70680000000000031690, 	 27.33362977021617012952, 	 26.89709790453078852579, 	 26.29182903501308388172
5.70790000000000041780, 	 32.60623383954943932395, 	 31.95923834299932408953, 	 31.03213617725075934572
5.70900000000000051870, 	 37.58542889855360158435, 	 36.75421859131220259087, 	 35.60936430749673320406
5.71010000000000061959, 	 42.25349522601636920172, 	 41.25627777471512303009, 	 39.96852153442626587321
5.71119999999999983231, 	 46.70353984191780227775, 	 45.57231314370963559668, 	 44.19456528516626292458
5.71229999999999993321, 	 51.06896055864826422521, 	 49.80818095173514592489, 	 48.34527349138405583062
5.71340000000000003411, 	 55.43191398171835970743, 	 54.03806202911796674471, 	 52.47690867112030588260
5.71450000000000013500, 	 59.83272054383945715017, 	 58.30258081744344877961, 	 56.62619890751150819597
5.71560000000000023590, 	 64.27945336970716994074, 	 62.61225612982463673006, 	 60.80727449658735395133
5.71670000000000033680, 	 68.76158550245322942374, 	 66.95894089872342647141, 	 65.01826005937556374192
5.71780000000000043769, 	 73.26030213436723670384, 	 71.32345538096647885595, 	 69.24638721546878628033
5.71890000000000053859, 	 77.75321006210145924342, 	 75.68431605371776527136, 	 73.47533263538853987029
5.72000000000000063949, 	 82.22760363186351639797, 	 80.02827161927183396983, 	 77.69064448808727263440
5.72109999999999985221, 	 86.67595971676550448137, 	 84.34615480770314377423, 	 81.88243524044040100307
5.72219999999999995310, 	 91.09685699366607991578, 	 88.63625816317127714683, 	 86.04930201163544722931
5.72330000000000005400, 	 95.49527223169236833655, 	 92.90461625685541946496, 	 90.19802266763329612331
5.72440000000000015490, 	 99.88069845886990094641, 	 97.16264155964235271767, 	 94.34071515221087622649
5.72550000000000025580, 	 104.26385106977342331902, 	 101.42316284115746327643, 	 98.49065096089594817386
5.72660000000000035669, 	 108.65330311849029953919, 	 105.69650538327910282987, 	 102.65840382314789280827
5.72770000000000045759, 	 113.05331823212334541040, 	 109.98803116057364093194, 	 106.84957639802478013280
5.72880000000000055849, 	 117.46344369845773769612, 	 114.29769308268409133689, 	 111.06445812029242858898
5.72990000000000065938, 	 121.87959547704762997000, 	 118.62124147013636843440, 	 115.29917528439418106245
5.73099999999999987210, 	 126.29587001362874332244, 	 122.95222300751768784721, 	 119.54754291147625622216
5.73209999999999997300, 	 130.70629877362165416343, 	 127.28392629178354411579, 	 123.80288353841220327922
5.73320000000000007390, 	 135.10604332275195815782, 	 131.61073597148799763090, 	 128.05934214670023152394
5.73430000000000017479, 	 139.49188308012108450384, 	 135.92873199198541556143, 	 132.31253962618202990598
5.73540000000000027569, 	 143.86211657173319622416, 	 140.23565098921841354240, 	 136.55964196117218989457
5.73650000000000037659, 	 148.21612013378728534008, 	 144.53045916928087422093, 	 140.79904515467947589968
5.73760000000000047748, 	 152.55380759842680049587, 	 148.81279063596792866520, 	 145.02989147096715782936
5.73870000000000057838, 	 156.87516363168029442932, 	 153.08244029446552758600, 	 149.25159775469487044575
5.73980000000000067928, 	 161.17994188193941340614, 	 157.33901928191747288110, 	 153.46350979805822589697
5.74089999999999989200, 	 165.46754411919843619216, 	 161.58180076204018860153, 	 157.66472513751443784713
5.74199999999999999289, 	 169.73704750362105642125, 	 165.80972952580245305398, 	 161.85407294916186060618
5.74310000000000009379, 	 173.98732297090830911657, 	 170.02153766805199097689, 	 166.03020259925534674039
5.74420000000000019469, 	 178.21718317515157536945, 	 174.21589960719808232170, 	 170.19171858545507802773
5.74530000000000029559, 	 182.42550944595595296960, 	 178.39156927792902251895, 	 174.33730553389816009258
5.74640000000000039648, 	 186.61132720688624431205, 	 182.54746342213962861933, 	 178.46580626247347822755
5.74750000000000049738, 	 190.77382244988413617648, 	 186.68268098651097375296, 	 182.57624123414271366528
5.74860000000000059828, 	 194.91230983876076265915, 	 190.79646825088207151566, 	 186.66777566245815478396
5.74970000000000069917, 	 199.02617311846364600569, 	 194.88815226455133711170, 	 190.73965579752734811336
5.75079999999999991189, 	 203.11480140087442691765, 	 198.95706859735864213690, 	 194.79113851091929632275
5.75190000000000001279, 	 207.17753932507179115419, 	 203.00250354958933485250, 	 198.82143337494957791023
5.75300000000000011369, 	 211.21366009557220877468, 	 207.02366134613092185646, 	 202.82966791362639469298
5.75410000000000021458, 	 215.22236175618908760043, 	 211.01965736676311280462, 	 206.81487788334229094289
5.75520000000000031548, 	 219.20278086406264606012, 	 214.98953139757088592887, 	 210.77601747220191441556
5.75630000000000041638, 	 223.15401583551064845778, 	 218.93227400418754768907, 	 214.71198765335589087044
5.75740000000000051728, 	 227.07515876115377295719, 	 222.84686314251928251906, 	 218.62166769164477386767
5.75850000000000061817, 	 230.96530333015547853392, 	 226.73226460322831599115, 	 222.50390360784174959008
5.75960000000000071907, 	 234.82354090255080336647, 	 230.58743470150250232109, 	 226.35752751592349341081
5.76069999999999993179, 	 238.64897012194953163089, 	 234.41133545289761741515, 	 230.18137682840824709274
5.76180000000000003268, 	 242.44070632522431196776, 	 238.20294592822384061037, 	 233.97430441216465624166
5.76290000000000013358, 	 246.19785515702622546996, 	 241.96128285697508886187, 	 237.73450481785667420809
5.76400000000000023448, 	 249.92003297906936154504, 	 245.68511716440414716089, 	 241.45964980897602458754
5.76510000000000033538, 	 253.60672012015126597362, 	 249.37396929157696945367, 	 245.15016537496052251299
5.76620000000000043627, 	 257.25730194923806948282, 	 253.02738019224202048463, 	 248.80575176560429895289
5.76730000000000053717, 	 260.87090567681434549741, 	 256.64449576639418637569, 	 252.42557826179350399798
5.76840000000000063807, 	 264.44644025759259875485, 	 260.22414989221999803704, 	 256.00844115879226592369
5.76949999999999985079, 	 267.98273197557170988148, 	 263.76503821278390660154, 	 259.55295934827029213920
5.77059999999999995168, 	 271.47865229825885080572, 	 267.26587561514901381088, 	 263.05773954444453011092
5.77170000000000005258, 	 274.93319159814876684322, 	 270.72549017959778439035, 	 266.52147809960752056213
5.77280000000000015348, 	 278.34547500832854893815, 	 274.14285147301166034595, 	 269.94300043634200392262
5.77390000000000025437, 	 281.71474017837056180724, 	 277.51705478786800540547, 	 273.32125715206711902283
5.77500000000000035527, 	 285.04030073617110474515, 	 280.84728658839878789877, 	 276.65529840278503570516
5.77610000000000045617, 	 288.32151220374055355933, 	 284.13278937486336417351, 	 279.94424322780884040185
5.77720000000000055707, 	 291.55774808029769928908, 	 287.37283517834350732301, 	 283.18725366239362983833
5.77830000000000065796, 	 294.74838734374816340278, 	 290.56671030744786321520, 	 286.38351800139514580223
5.77939999999999987068, 	 297.89281137023533574393, 	 293.71371025978476154705, 	 289.53224381558175082318
5.78049999999999997158, 	 300.99040790469302919519, 	 296.81314339920163547504, 	 292.63266114049923771745
5.78160000000000007248, 	 304.04057966481519770241, 	 299.86434019451030508208, 	 295.68403094539888797954
5.78270000000000017337, 	 307.04275310336839766023, 	 302.86666298406828445877, 	 298.68565470253452076577
5.78380000000000027427, 	 309.99638524774053394140, 	 305.81951409672899444558, 	 301.63688297353422740343
5.78490000000000037517, 	 312.90096779099383184075, 	 308.72234096665715696872, 	 304.53712092184781567994
5.78600000000000047606, 	 315.75602773511832310760, 	 311.57463700700827757828, 	 307.38582910338686815521
5.78710000000000057696, 	 318.56112553420359745360, 	 314.37594005498328897374, 	 310.18252276288200164345
5.78820000000000067786, 	 321.31585139590657718145, 	 317.12582685076688449044, 	 312.92676268351254975641
5.78929999999999989058, 	 324.01981499259619567965, 	 319.82389914431217903257, 	 315.61813863688274750530
5.79039999999999999147, 	 326.67263621896444192316, 	 322.46977436756264978612, 	 318.25626442578476371636
5.79150000000000009237, 	 329.27394922293615309172, 	 325.06309350601571850348, 	 320.84079201683965720804
5.79260000000000019327, 	 331.82341896453976914927, 	 327.60354209050842655415, 	 323.37143483202595461989
5.79370000000000029416, 	 334.32075804492677661983, 	 330.09086906628158430976, 	 325.84798413100304514955
5.79480000000000039506, 	 336.76573186916721169837, 	 332.52489069094951901207, 	 328.27030821322205156321
5.79590000000000049596, 	 339.15814884394751516083, 	 334.90547708095920143023, 	 330.63833496555122337668
5.79700000000000059686, 	 341.49784142538402420541, 	 337.23252901452434571183, 	 332.95202682231740709540
5.79810000000000069775, 	 343.78464766874179758815, 	 339.50595607181645618766, 	 335.21135871025228425424
5.79919999999999991047, 	 346.01840051848131452061, 	 341.72566400812024767220, 	 337.41630580162200203631
5.80030000000000001137, 	 348.19892689891491954768, 	 343.89155337132160639158, 	 339.56684224560115126224
5.80140000000000011227, 	 350.32605404343689770030, 	 346.00352632555308218798, 	 341.66294762604343304702
5.80250000000000021316, 	 352.39961845264957673862, 	 348.06149650209584933691, 	 343.70461620623910903305
5.80360000000000031406, 	 354.41947343022263794410, 	 350.06539740572901564519, 	 345.69186488338408480558
5.80470000000000041496, 	 356.38549308498642176346, 	 352.01518695447583695568, 	 347.62473746289646214791
5.80580000000000051585, 	 358.29757249960749732054, 	 353.91084772720728324202, 	 349.50330481226296797104
5.80690000000000061675, 	 360.15562511442249160609, 	 355.75238400467736710198, 	 351.32766182103995333819
5.80800000000000071765, 	 361.95957879230439857565, 	 357.53981716355428943643, 	 353.09792256267348875554
5.80909999999999993037, 	 363.70937181397039239528, 	 359.27318081243674896541, 	 354.81421499122257046110
5.81020000000000003126, 	 365.40494958006144088358, 	 360.95251658613500467254, 	 356.47667612598502273613
5.81130000000000013216, 	 367.04626232331168012024, 	 362.57787101499036452878, 	 358.08544823182313621146
5.81240000000000023306, 	 368.63326379265231480531, 	 364.14929349963728100192, 	 359.64067611546721536797
5.81350000000000033396, 	 370.16591067516793600589, 	 365.66683517478213616414, 	 361.14250537579260935672
5.81460000000000043485, 	 371.64416244293840918544, 	 367.13054832576835906366, 	 362.59108128940613369195
5.81570000000000053575, 	 373.06798132616967222930, 	 368.54048601672309359856, 	 363.98654798594856174532
5.81680000000000063665, 	 374.43733219279960167114, 	 369.89670166578338239560, 	 365.32904763144432536137
5.81789999999999984936, 	 375.75218222066808948512, 	 371.19924842016268939915, 	 366.61871945478890211234
5.81899999999999995026, 	 377.01250035301364960105, 	 372.44817830649640200136, 	 367.85569858065451853690
5.82010000000000005116, 	 378.21825660736283225560, 	 373.64354122821032433421, 	 369.04011473459814851594
5.82120000000000015206, 	 379.36942134752729316460, 	 374.78538393300590314539, 	 370.17209094342496200625
5.82230000000000025295, 	 380.46596462220429657464, 	 375.87374905960405158112, 	 371.25174230388739715636
5.82340000000000035385, 	 381.50785549913751992790, 	 376.90867408622744960667, 	 372.27917443006754183443
5.82450000000000045475, 	 382.49506099809724446459, 	 377.89018968748985116690, 	 373.25448114286581358101
5.82560000000000055564, 	 383.42754474948679899171, 	 378.81831801423777505988, 	 374.17774277102114410809
5.82670000000000065654, 	 384.30526694418279021193, 	 379.69307303109604845304, 	 375.04902756140808151031
5.82779999999999986926, 	 385.12818385339403448597, 	 380.51445683795429886231, 	 375.86837818140031686198
5.82889999999999997016, 	 385.89623409693462008363, 	 381.28244417078707328983, 	 376.63580836128795681361
5.83000000000000007105, 	 386.60935914979893368582, 	 381.99701824225360269338, 	 377.35135228550808506043
5.83110000000000017195, 	 387.26752548725687574915, 	 382.65818676235193152024, 	 378.01506050955765658728
5.83220000000000027285, 	 387.87071516330979648046, 	 383.26596876698584992482, 	 378.62698595173367266398
5.83330000000000037375, 	 388.41891161447500735449, 	 383.82037991814411270752, 	 379.18717267767669909517
5.83440000000000047464, 	 388.91209119658816462106, 	 384.32142383496000093146, 	 379.69564901332716999605
5.83550000000000057554, 	 389.35022118495504628299, 	 384.76909010627332463628, 	 380.15242611243922965514
5.83660000000000067644, 	 389.73326229622114169615, 	 385.16335702956723707757, 	 380.55750039492414771303
5.83769999999999988916, 	 390.06117270418627640538, 	 385.50419589773918005449, 	 380.91085733915201672062
5.83879999999999999005, 	 390.33391150373438449606, 	 385.79157479259760066270, 	 381.21247495113061631855
5.83990000000000009095, 	 390.55144049509692649735, 	 386.02546044776607914173, 	 381.46232518095274599546
5.84100000000000019185, 	 390.71372371313623261813, 	 386.20581746235001219247, 	 381.66037261662108903693
5.84210000000000029274, 	 390.82072511554321181393, 	 386.33260543408056264525, 	 381.80657127909375958552
5.84320000000000039364, 	 390.87240571998495397565, 	 386.40577558381733069837, 	 381.90086123362760872624
5.84430000000000049454, 	 390.86872164341940560917, 	 386.42526856434523097050, 	 381.94316668912648538026
5.84540000000000059543, 	 390.80962396840436667844, 	 386.39101449350874872835, 	 381.93339650998086653999
5.84650000000000069633, 	 390.69506050275919051273, 	 386.30293524379317204875, 	 381.87144705126763710723
5.84759999999999990905, 	 390.52497880693272236385, 	 386.16094825487175512535, 	 381.75720653495562828539
5.84870000000000000995, 	 390.29932953975378495670, 	 385.96497072916315573821, 	 381.59055973532468897247
5.84980000000000011084, 	 390.01806919788225513912, 	 385.71492312652253531269, 	 381.37139190603454608208
5.85090000000000021174, 	 389.68116176112283710609, 	 385.41073140226609439196, 	 381.09959143758862865070
5.85200000000000031264, 	 389.28857924872818330186, 	 385.05232796876822476406, 	 380.77505120154012274725
5.85310000000000041354, 	 388.84030148765248213749, 	 384.63965169883891803693, 	 380.39766887435303033271
5.85420000000000051443, 	 388.33631549705586394339, 	 384.17264741729348997978, 	 379.96734666549588155249
5.85530000000000061533, 	 387.77661484177150441610, 	 383.65126529025405943685, 	 379.48399087231797466302
5.85640000000000071623, 	 387.16119920146377353376, 	 383.07546041936120673199, 	 378.94751160513595777957
5.85749999999999992895, 	 386.49007429480616337969, 	 382.44519283343856841384, 	 378.35782291037531877009
5.85860000000000002984, 	 385.76325215679884195197, 	 381.76042787191289562543, 	 377.71484325174014884396
5.85970000000000013074, 	 384.98075159258758048964, 	 381.02113674467437931526, 	 377.01849610770909748680
5.86080000000000023164, 	 384.14259860504739663156, 	 380.22729709274699416710, 	 376.26871068486059357383
5.86190000000000033253, 	 383.24882703700518504775, 	 379.37889399742329032961, 	 375.46542347370069592216
5.86300000000000043343, 	 382.29947991308256405318, 	 378.47592192753961626295, 	 374.60858085687374341433
5.86410000000000053433, 	 381.29461123809966238696, 	 377.51838709114622361085, 	 373.69814175930105193402
5.86520000000000063523, 	 380.23428723394192729756, 	 376.50630888559277309469, 	 372.73407890940671904900
5.86629999999999984794, 	 379.11858612030243875779, 	 375.43971948692239948286, 	 371.71637799822349279566
5.86739999999999994884, 	 377.94759642277028888202, 	 374.31866171436161039310, 	 370.64503519486663662974
5.86850000000000004974, 	 376.72141469670162905459, 	 373.14318633906538025258, 	 369.52005443975900789155
5.86960000000000015064, 	 375.44014394844481330438, 	 371.91335035532983965822, 	 368.34144600451304540911
5.87070000000000025153, 	 374.10389354687907825792, 	 370.62921704259457555963, 	 367.10922693057807464356
5.87180000000000035243, 	 372.71278057583873533076, 	 369.29085771358040801715, 	 365.82342314698320251409
5.87290000000000045333, 	 371.26693203771714024697, 	 367.89835446656559270195, 	 364.48407257474980269762
5.87400000000000055422, 	 369.76648717704432556275, 	 366.45180310245586952078, 	 363.09122838575797231897
5.87510000000000065512, 	 368.21159934091315335536, 	 364.95131552502425620332, 	 361.64496172981495192289
5.87619999999999986784, 	 366.60243707660305290119, 	 363.39702125929812837057, 	 360.14536355417448021399
5.87729999999999996874, 	 364.93918445751552326328, 	 361.78906805137864921562, 	 358.59254544979586398767
5.87840000000000006963, 	 363.22204080090921252122, 	 360.12762170579173925944, 	 356.98663964541401583119
5.87950000000000017053, 	 361.45122001651890286666, 	 358.41286542708502338428, 	 355.32779839175464076106
5.88060000000000027143, 	 359.62694962402019882575, 	 356.64499857035292507135, 	 353.61619242442867516729
5.88170000000000037232, 	 357.74946955210310761686, 	 354.82423521965051804727, 	 351.85200950781040774018
5.88280000000000047322, 	 355.81903189928721076285, 	 352.95080473940515730646, 	 350.03545756139573086330
5.88390000000000057412, 	 353.83590738042516932182, 	 351.02496195130305522980, 	 348.16677940005001801183
5.88500000000000067502, 	 351.80039508564561856474, 	 349.04699762643446092625, 	 346.24625940636167342745
5.88609999999999988773, 	 349.71282026199617121165, 	 347.01723223019030228897, 	 344.27421001545093304230
5.88719999999999998863, 	 347.57351842312510825650, 	 344.93599533088240605139, 	 342.25094839245633693281
5.88830000000000008953, 	 345.38281857924522455505, 	 342.80360667573427235766, 	 340.17677985050397637679
5.88940000000000019043, 	 343.14103762286140408833, 	 340.62037140721486139228, 	 338.05199692941516786959
5.89050000000000029132, 	 340.85248616863088955142, 	 338.38669552013993779838, 	 335.87680213297721820709
5.89160000000000039222, 	 338.51751753189881810613, 	 336.10352712212767301025, 	 333.65039341673679018641
5.89270000000000049312, 	 336.13268871780826430040, 	 333.76964339481708066160, 	 331.37271638791241912259
5.89380000000000059401, 	 333.69683240416924263627, 	 331.38441722067159389553, 	 329.04371355451314684615
5.89490000000000069491, 	 331.21019469837136739443, 	 328.94816943202511083655, 	 326.66371355456152514307
5.89599999999999990763, 	 328.67356599361977487206, 	 326.46183289148984840722, 	 324.23368303689790081989
5.89710000000000000853, 	 326.08792072033844533507, 	 323.92653251777852574378, 	 321.75476571100159617345
5.89820000000000010942, 	 323.45416192562515789177, 	 321.34329831677683841917, 	 319.22802414174492469101
5.89930000000000021032, 	 320.77300202112854776715, 	 318.71292709698298040166, 	 316.65429318261101343523
5.90040000000000031122, 	 318.04496175999776141907, 	 316.03599786351122702399, 	 314.03422944045627218657
5.90150000000000041211, 	 315.27047813078632998440, 	 313.31299063208427924110, 	 311.36838933197236656270
5.90260000000000051301, 	 312.44996527938565122895, 	 310.54434205547761393973, 	 308.65725629924031636619
