x [cm], 	 0.25592592592592589007, 	 34.54999999999999715783, 	 68.84407407407405798949
0.00000000000000000000, 	 0.00000000000000000000, 	 0.00000000000000000000, 	 0.00000000000000000000
5.70020000000000059970, 	 1.50467339461015714441, 	 9.22559150700473296070, 	 18.98919254341760165516
5.70130000000000070060, 	 1.67035640605334534392, 	 9.21768600530748649646, 	 18.94140650791345592552
5.70239999999999991331, 	 1.84090940361493071720, 	 9.21272525821445675831, 	 18.89344956369632910764
5.70350000000000001421, 	 2.01580529799017504899, 	 9.21100239315725666245, 	 18.84534131258707390089
5.70460000000000011511, 	 2.19453641243154473628, 	 9.21280315103137859012, 	 18.79710396757055335115
5.70570000000000021600, 	 2.37715223519156637622, 	 9.21840212466395136914, 	 18.74876477276217912049
5.70680000000000031690, 	 2.56658561109328697825, 	 9.22805917496096128616, 	 18.70035589872128412026
5.70790000000000041780, 	 2.77182833568036279814, 	 9.24201645485765332921, 	 18.65191354550371372056
5.70900000000000051870, 	 3.00901315502617938691, 	 9.26049623908149577289, 	 18.60347915901862236865
5.71010000000000061959, 	 3.30372996714681788077, 	 9.28369959174818148995, 	 18.55509739403575508732
5.71119999999999983231, 	 3.67015015131418520511, 	 9.31180575155281609057, 	 18.50681613890150245538
5.71229999999999993321, 	 4.09528802163946092918, 	 9.34497199980082271509, 	 18.45868500064525008497
5.71340000000000003411, 	 4.56505846038316942526, 	 9.38333372178477631564, 	 18.41075497081419953815
5.71450000000000013500, 	 5.07272411488559615833, 	 9.42700439147330193634, 	 18.36307916220846436772
5.71560000000000023590, 	 5.60661455066620462162, 	 9.47607530141626952513, 	 18.31571299190828483461
5.71670000000000033680, 	 6.15474310427921089683, 	 9.53061499521709798444, 	 18.26871400670880518646
5.71780000000000043769, 	 6.70860130343072302850, 	 9.59066849826356637720, 	 18.22214236277501342443
5.71890000000000053859, 	 7.26369465327081709205, 	 9.65625654206496442100, 	 18.17606408491390723725
5.72000000000000063949, 	 7.81805216187203377842, 	 9.72737501140714044823, 	 18.13054353699085297080
5.72109999999999985221, 	 8.37105975787038225633, 	 9.80399482198844296477, 	 18.08563935843038095186
5.72219999999999995310, 	 8.92300659728029899043, 	 9.88606243974093956695, 	 18.04141250852097755342
5.72330000000000005400, 	 9.47417230447647895630, 	 9.97350147436459977257, 	 17.99792091727049836436
5.72440000000000015490, 	 10.02463398811691774881, 	 10.06621654439472202114, 	 17.95522440728032265156
5.72550000000000025580, 	 10.57436502613888151814, 	 10.16410228502172152787, 	 17.91338428428367635092
5.72660000000000035669, 	 11.12359544753819484697, 	 10.26706301459426207145, 	 17.87246170676264256372
5.72770000000000045759, 	 11.67314536590814455508, 	 10.37505135935641575884, 	 17.83251680235066061186
5.72880000000000055849, 	 12.22450942949927998882, 	 10.48813495127923900441, 	 17.79360795469462530605
5.72990000000000065938, 	 12.77963043525853770177, 	 10.60659640524408331430, 	 17.75579100678008259706
5.73099999999999987210, 	 13.34043893876555486600, 	 10.73106162977136612824, 	 17.71911846684017888265
5.73209999999999997300, 	 13.90846479291682591395, 	 10.86263684515667193864, 	 17.68363884447462908156
5.73320000000000007390, 	 14.48454376671740817528, 	 11.00302064845951655059, 	 17.64939616334049432567
5.73430000000000017479, 	 15.06865698395721331337, 	 11.15455045801414257767, 	 17.61642962684360114167
5.73540000000000027569, 	 15.66001874766032564423, 	 11.32014720539547170119, 	 17.58477338943802337212
5.73650000000000037659, 	 16.25725835110146988427, 	 11.50313945736406218145, 	 17.55445639435414051377
5.73760000000000047748, 	 16.85869508789415505134, 	 11.70697674282785527566, 	 17.52550225670490391394
5.73870000000000057838, 	 17.46263727389859710115, 	 11.93487610346083549473, 	 17.49792918513567485661
5.73980000000000067928, 	 18.06758068723297583347, 	 12.18947062350268417674, 	 17.47174994153979099565
5.74089999999999989200, 	 18.67228982072539977821, 	 12.47235670557197195762, 	 17.44697183908754922754
5.74199999999999999289, 	 19.27583752290446383881, 	 12.78204159537882667053, 	 17.42359677841830389866
5.74310000000000009379, 	 19.87758855300636184893, 	 13.11941097841056347306, 	 17.40162132492985236354
5.74420000000000019469, 	 20.47718946257479188944, 	 13.48543992111673972545, 	 17.38103684097550427623
5.74530000000000029559, 	 21.07448641507350473034, 	 13.87843187325348814909, 	 17.36183055556966436939
5.74640000000000039648, 	 21.66947878841909158609, 	 14.29591691347945747737, 	 17.34397683887933183655
5.74750000000000049738, 	 22.26230627803635186979, 	 14.73495956009703000689, 	 17.32745585612180505564
5.74860000000000059828, 	 22.85322590685827037760, 	 15.19240396346596000399, 	 17.31224727413418307265
5.74970000000000069917, 	 23.44257766550804689132, 	 15.66510384614424467031, 	 17.29832235689058350658
5.75079999999999991189, 	 24.03075981119325987834, 	 16.15011630099771622326, 	 17.28566061176597301596
5.75190000000000001279, 	 24.61819111395449510837, 	 16.64484564238988539842, 	 17.27424945824265378747
5.75300000000000011369, 	 25.20526311296461230427, 	 17.14713363210243812773, 	 17.26409051130167782162
5.75410000000000021458, 	 25.79229439100150855779, 	 17.65529790123385822653, 	 17.25520954080905156047
5.75520000000000031548, 	 26.37949605008308040510, 	 18.16812551572223100038, 	 17.24766703414502444502
5.75630000000000041638, 	 26.96694984158144592357, 	 18.68483017704019388816, 	 17.24157785294199385362
5.75740000000000051728, 	 27.55461394153982368493, 	 19.20498227637849453231, 	 17.23711826457369511445
5.75850000000000061817, 	 28.14235287442878430397, 	 19.72842118455026394486, 	 17.23453718383937172121
5.75960000000000071907, 	 28.72994767572464169803, 	 20.25515904607875228294, 	 17.23416433432217331756
5.76069999999999993179, 	 29.31715148563074180288, 	 20.78528501390839977603, 	 17.23640232523742810145
5.76180000000000003268, 	 29.90372153489234108292, 	 21.31887815993635726386, 	 17.24173916909548864851
5.76290000000000013358, 	 30.48944355723858734564, 	 21.85593605403617800675, 	 17.25077951669919684718
5.76400000000000023448, 	 31.07415690282726927762, 	 22.39632407042970285715, 	 17.26328903658628277640
5.76510000000000033538, 	 31.65777205536942062736, 	 22.93974797354158567941, 	 17.27915073984934224427
5.76620000000000043627, 	 32.24028362333827857356, 	 23.48574959839038811538, 	 17.30030957820359560628
5.76730000000000053717, 	 32.82177293108902205176, 	 24.03372298211486324249, 	 17.32819994241116390299
5.76840000000000063807, 	 33.40240937908608032103, 	 24.58294730558697338552, 	 17.36225483925586132727
5.76949999999999985079, 	 33.98244731847214694653, 	 25.13264016446359505608, 	 17.40229364120634159008
5.77059999999999995168, 	 34.56221585976327759226, 	 25.68202230712967804038, 	 17.44836879237676896537
5.77170000000000005258, 	 35.14210243640633990481, 	 26.23021593469384171726, 	 17.50049224080660081881
5.77280000000000015348, 	 35.72253117730636517990, 	 26.77644520747671919025, 	 17.55864531699808850362
5.77390000000000025437, 	 36.30393752307368515631, 	 27.32004265650985530556, 	 17.62266264584264519044
5.77500000000000035527, 	 36.88673909748352741644, 	 27.86045425438194911294, 	 17.69205841922098443320
5.77610000000000045617, 	 37.47130476066885762521, 	 28.39724772405910258044, 	 17.76630735193083765466
5.77720000000000055707, 	 38.05793234042039330234, 	 28.93010984995294165856, 	 17.84485547276804240369
5.77830000000000065796, 	 38.64682026801985159636, 	 29.45883478865766136323, 	 17.92715614743698182565
5.77939999999999987068, 	 39.23805819556577745288, 	 29.98330573331196902132, 	 18.01268373808799339031
5.78049999999999997158, 	 39.83161953054740678226, 	 30.50347229258116499295, 	 18.10090127475876897734
5.78160000000000007248, 	 40.42736952886302503885, 	 31.01932570440957448454, 	 18.19131629862233268113
5.78270000000000017337, 	 41.02505038479460353074, 	 31.53087365747234471769, 	 18.28355633934956614439
5.78380000000000027427, 	 41.62431435144744540366, 	 32.03811616739969991841, 	 18.37735616711432484749
5.78490000000000037517, 	 42.22474653325089377631, 	 32.54102378925598060277, 	 18.47253467649656144545
5.78600000000000047606, 	 42.82588579058007383082, 	 33.03951940188272828891, 	 18.56898508590778718030
5.78710000000000057696, 	 43.42725465568393872218, 	 33.53346460006540041832, 	 18.66664912719239310945
5.78820000000000067786, 	 44.02839278232560360493, 	 34.02265126474727452432, 	 18.76551098151506380418
5.78929999999999989058, 	 44.62886312121668908048, 	 34.50679831892338711441, 	 18.86558190734059792248
5.79039999999999999147, 	 45.22829244376787727333, 	 34.98555321466093914751, 	 18.96688041778993394360
5.79150000000000009237, 	 45.82637537295833851658, 	 35.45849740923894444222, 	 19.06941800608132098205
5.79260000000000019327, 	 46.42289101532655593019, 	 35.92515497078359487659, 	 19.17318211985116960250
5.79370000000000029416, 	 47.01771357314613908329, 	 36.38500348372014769893, 	 19.27813801076850097616
5.79480000000000039506, 	 47.61079548126830474075, 	 36.83748656396964804571, 	 19.38422527175268328392
5.79590000000000049596, 	 48.20217547467468222067, 	 37.28202747658870208625, 	 19.49135689775996738149
5.79700000000000059686, 	 48.79177815077576241265, 	 37.71804349597335459521, 	 19.59942347465300827025
5.79810000000000069775, 	 49.37957247646228609028, 	 38.14496070719970788332, 	 19.70830016071225898600
5.79919999999999991047, 	 49.96561021378066413945, 	 38.56222891186541090747, 	 19.81785475130796569943
5.80030000000000001137, 	 50.54990694209696755479, 	 38.96933621166969885508, 	 19.92795574832305760538
5.80140000000000011227, 	 51.13239822971372916527, 	 39.36582275356261106936, 	 20.03848229125021518371
5.80250000000000021316, 	 51.71292621633435260264, 	 39.75129307552793278546, 	 20.14931926755478386326
5.80360000000000031406, 	 52.29124258294005755943, 	 40.12542650998901194725, 	 20.26037258488233661069
5.80470000000000041496, 	 52.86701458023333799474, 	 40.48798518009192548561, 	 20.37156971472507294152
5.80580000000000051585, 	 53.43983694181459753736, 	 40.83881925372025989418, 	 20.48285670754368226198
5.80690000000000061675, 	 54.00924181045403571488, 	 41.17786929053303168757, 	 20.59419658878701397953
5.80800000000000071765, 	 54.57471451705144716016, 	 41.50516571116412478659, 	 20.70556704427702143789
5.80909999999999993037, 	 55.13573278602551397398, 	 41.82082560781945090866, 	 20.81695725356644288695
5.81020000000000003126, 	 55.69178715857447770077, 	 42.12504727311056029748, 	 20.92836433899050518903
5.81130000000000013216, 	 56.24235976654374979944, 	 42.41810293024336431245, 	 21.03978992865787489563
5.81240000000000023306, 	 56.78688591432546672877, 	 42.70033019658624340309, 	 21.15123760168205890864
5.81350000000000033396, 	 57.32484333280481791917, 	 42.97212280538390416496, 	 21.26270983480234733065
5.81460000000000043485, 	 57.85573388756632340346, 	 43.23392105275572561141, 	 21.37420646570602400516
5.81570000000000053575, 	 58.37911099150130667113, 	 43.48620234361715120031, 	 21.48572645166273886730
5.81680000000000063665, 	 58.89450470078885757630, 	 43.72947210444713306288, 	 21.59726759627735503955
5.81789999999999984936, 	 59.40142900806510084522, 	 43.96425523450690064919, 	 21.70882720122673603669
5.81899999999999995026, 	 59.89939029268714421050, 	 44.19108818603483257448, 	 21.82040265783892607487
5.82010000000000005116, 	 60.38788290685620552267, 	 44.41051168794599135481, 	 21.93199450116552284840
5.82120000000000015206, 	 60.86634753060922520262, 	 44.62306404618534116935, 	 22.04360961623872228188
5.82230000000000025295, 	 61.33416086869252126235, 	 44.82927487330414351163, 	 22.15526262525925460523
5.82340000000000035385, 	 61.79064451017331549565, 	 45.02965904536624464072, 	 22.26697711044888805532
5.82450000000000045475, 	 62.23505873544841904277, 	 45.22471068644741620801, 	 22.37878635021109019476
5.82560000000000055564, 	 62.66658226649777674311, 	 45.41489705604885784851, 	 22.49073197574845650593
5.82670000000000065654, 	 63.08428599046306572973, 	 45.60065235222919000080, 	 22.60286269611778209310
5.82779999999999986926, 	 63.48712553544679337847, 	 45.78237160585882747910, 	 22.71523450305268099214
5.82889999999999997016, 	 63.87397536684442655996, 	 45.96040497545985203942, 	 22.82790827321037951947
5.83000000000000007105, 	 64.24360635871833835608, 	 46.13505280680777076441, 	 22.94094506442149850045
5.83110000000000017195, 	 64.59476923452376695423, 	 46.30656179435110431086, 	 23.05440426926080021985
5.83220000000000027285, 	 64.92622722219982733804, 	 46.47512254186668201328, 	 23.16834299759229409688
5.83330000000000037375, 	 65.23674510756144684365, 	 46.64086878711911055007, 	 23.28281344837778732426
5.83440000000000047464, 	 65.52510162689686978865, 	 46.80387842361771788546, 	 23.39785971740107228811
5.83550000000000057554, 	 65.79012229930457067439, 	 46.96417617866737970189, 	 23.51351548354360687654
5.83660000000000067644, 	 66.03073146316644681519, 	 47.12173753473031467820, 	 23.62980274400217339803
5.83769999999999988916, 	 66.24598681260810906224, 	 47.27649337707921972651, 	 23.74673143364302063674
5.83879999999999999005, 	 66.43508396803883897519, 	 47.42833494172345609741, 	 23.86429979348896779356
5.83990000000000009095, 	 66.59735290529704343498, 	 47.57711881785898810904, 	 23.98249540183466166354
5.84100000000000019185, 	 66.73226392571091025729, 	 47.72267149383794304640, 	 24.10129677587119090276
5.84210000000000029274, 	 66.83944689170870390171, 	 47.86479284812714496411, 	 24.22067541353300867968
5.84320000000000039364, 	 66.91871328837090970865, 	 48.00326169894291439277, 	 24.34059810394456846439
5.84430000000000049454, 	 66.97006405412052743031, 	 48.13783672866097163023, 	 24.46102930732047298079
5.84540000000000059543, 	 66.99368539814476264382, 	 48.26825731705535105220, 	 24.58193342528934266511
5.84650000000000069633, 	 66.98993796447598469967, 	 48.39424323743671862985, 	 24.70327763669288856363
5.84759999999999990905, 	 66.95934345762893258325, 	 48.51549323189590268157, 	 24.82503316406502236191
5.84870000000000000995, 	 66.90257107484485743498, 	 48.63168247926733300801, 	 24.94716553964010330446
5.84980000000000011084, 	 66.82036100234884656857, 	 48.74245910879756138456, 	 25.06965483572643194066
5.85090000000000021174, 	 66.71403809340614543544, 	 48.84744013056030098596, 	 25.19248431837225510321
5.85200000000000031264, 	 66.58655583111102771454, 	 48.94620733505872323121, 	 25.31563898055443928570
5.85310000000000041354, 	 66.43752068801343568794, 	 49.03830379839320130486, 	 25.43910475135701076965
5.85420000000000051443, 	 66.26731275176003066463, 	 49.12323160803047983336, 	 25.56286678820551472313
5.85530000000000061533, 	 66.07668278447056309233, 	 49.20045131740190669234, 	 25.68690744558361771510
5.85640000000000071623, 	 65.86656495518681708745, 	 49.26938347803606887965, 	 25.81120420589781261356
5.85749999999999992895, 	 65.63811208842867017665, 	 49.32941245730275170445, 	 25.93572770257577531083
5.85860000000000002984, 	 65.39246464892588051043, 	 49.37989153424396704395, 	 26.06044011845426666696
5.85970000000000013074, 	 65.13074122940648180702, 	 49.42014113135349617778, 	 26.18529404086589451595
5.86080000000000023164, 	 64.85403541381870695659, 	 49.44943953451458895643, 	 26.31023101955469201130
5.86190000000000033253, 	 64.56339399414520130449, 	 49.46703887997229998064, 	 26.43518261452875961481
5.86300000000000043343, 	 64.25980248212697176768, 	 49.47221587699424105722, 	 26.56007220804627877442
5.86410000000000053433, 	 63.94418003676653228240, 	 49.46441293704085495619, 	 26.68481953155405506095
5.86520000000000063523, 	 63.61738535421687146254, 	 49.44380524066890814083, 	 26.80933114231488900714
5.86629999999999984794, 	 63.28028170088420978345, 	 49.40912719892121174325, 	 26.93349881870142326079
5.86739999999999994884, 	 62.93375291654027847699, 	 49.35979545484727282201, 	 27.05721566843470426988
5.86850000000000004974, 	 62.57862483888619209438, 	 49.29537572750173524128, 	 27.18037460055138865300
5.86960000000000015064, 	 62.21562898163094956772, 	 49.21551550966341181947, 	 27.30286668065722111010
5.87070000000000025153, 	 61.84546419620902923953, 	 49.11994674580846975687, 	 27.42458134408357040002
5.87180000000000035243, 	 61.46879700227026432913, 	 49.00849147014498896624, 	 27.54540678783637375204
5.87290000000000045333, 	 61.08628875731186980147, 	 48.88106668226612327999, 	 27.66522805257731931761
5.87400000000000055422, 	 60.69854482840842990754, 	 48.73768593338740373611, 	 27.78392946776388683361
5.87510000000000065512, 	 60.30611913095979303989, 	 48.57845672153826654949, 	 27.90139352769876879279
5.87619999999999986784, 	 59.90952230052950255867, 	 48.40357381449831564169, 	 28.01749963661309550389
5.87729999999999996874, 	 59.50922523652663898019, 	 48.21330957486453883121, 	 28.13212343603143494875
5.87840000000000006963, 	 59.10566093806268384014, 	 48.00800288514476932278, 	 28.24513618954657800941
5.87950000000000017053, 	 58.69922128294104624047, 	 47.78804825754283314154, 	 28.35640420225007218846
5.88060000000000027143, 	 58.29025113030895255406, 	 47.55388626583253852687, 	 28.46578835647788352503
5.88170000000000037232, 	 57.87904184098129434233, 	 47.30599578646675951177, 	 28.57314374380455745950
5.88280000000000047322, 	 57.46582633041419541087, 	 47.04488794166780962769, 	 28.67831917124017948595
5.88390000000000057412, 	 57.05078286593078473743, 	 46.77110128058988181010, 	 28.78115647968074952701
5.88500000000000067502, 	 56.63404501374756705445, 	 46.48519765866261366227, 	 28.88149110606430625126
5.88609999999999988773, 	 56.21570935468310636907, 	 46.18775839807615568589, 	 28.97915729383830552024
5.88719999999999998863, 	 55.79583656771345800962, 	 45.87938050717251314836, 	 29.07399908773557228869
5.88830000000000008953, 	 55.37444669860922630278, 	 45.56067291053644652266, 	 29.16588063570652522571
5.88940000000000019043, 	 54.95151464154284326469, 	 45.23225276236858150014, 	 29.25468641914977396823
5.89050000000000029132, 	 54.52696871690125135501, 	 44.89474198740570898281, 	 29.34031074507496228421
5.89160000000000039222, 	 54.10069312012665676548, 	 44.54876422298327298677, 	 29.42264616870210147681
5.89270000000000049312, 	 53.67253471794596464406, 	 44.19494231992509014617, 	 29.50158028797827114431
5.89380000000000059401, 	 53.24230809475751158288, 	 43.83389649689845413150, 	 29.57700210237277715919
5.89490000000000069491, 	 52.80979775884397753316, 	 43.46624314570208724717, 	 29.64881248105864486320
5.89599999999999990763, 	 52.37476146746868721493, 	 43.09259418232144156491, 	 29.71693329003243633224
5.89710000000000000853, 	 51.93693363023992759508, 	 42.71355676197924111648, 	 29.78131073392308181269
5.89820000000000010942, 	 51.49602769661133550017, 	 42.32973314507329831713, 	 29.84191803446643476150
5.89930000000000021032, 	 51.05173577090265268907, 	 41.94172051537911016794, 	 29.89875178266628097390
5.90040000000000031122, 	 50.60373933627675313573, 	 41.55011059876328260998, 	 29.95183381103700170911
5.90150000000000041211, 	 50.15170608255599660197, 	 41.15548899281522921001, 	 30.00119891990945930615
5.90260000000000051301, 	 49.69528919465216176832, 	 40.75843418256620509510, 	 30.04690794490494454294
5.90370000000000061391, 	 49.23413238463040642046, 	 40.35951627795092377937, 	 30.08903413593345632648
5.90480000000000071481, 	 48.76787126265210048359, 	 39.95929556007849470234, 	 30.12765998974658643306
5.90589999999999992752, 	 48.29607704438354431886, 	 39.55832095902986367264, 	 30.16287470168223094902
5.90700000000000002842, 	 47.81762284548688768382, 	 39.15712496964329147886, 	 30.19478814764005392135
5.90810000000000012932, 	 47.33238029907403898733, 	 38.75621777134416134913, 	 30.22351742200350699363
