x [cm], 	 0.69214285714285717077, 	 48.45000000000000284217, 	 96.20785714285715073402
0.00000000000000000000, 	 0.00000000000000000000, 	 0.00000000000000000000, 	 0.00000000000000000000
5.70020000000000059970, 	 -0.66410520164385378195, 	 3.42021282968411943770, 	 5.37605625071338621979
5.70130000000000070060, 	 -0.76139449744738163517, 	 3.33535951656608897764, 	 5.35481727831054765687
5.70239999999999991331, 	 -0.85799927671096321014, 	 3.25085671224529182410, 	 5.33360295835388598107
5.70350000000000001421, 	 -0.95391309495919784922, 	 3.16671360138651047933, 	 5.31240967337401759352
5.70460000000000011511, 	 -1.04912959208611744621, 	 3.08293927564855074763, 	 5.29123352911253963526
5.70570000000000021600, 	 -1.14364249728369427039, 	 2.99954272984709868766, 	 5.27007060152230000227
5.70680000000000031690, 	 -1.23744563302337851063, 	 2.91653285158763209139, 	 5.24891713743621046717
5.70790000000000041780, 	 -1.33053291833902886943, 	 2.83391840725199184448, 	 5.22776969829345983243
5.70900000000000051870, 	 -1.42289837153511622425, 	 2.75170802732761332621, 	 5.20662467374718129776
5.71010000000000061959, 	 -1.51453611242522634406, 	 2.66991019261635775806, 	 5.18547569630124183249
5.71119999999999983231, 	 -1.60544036419610547384, 	 2.58853322227782545184, 	 5.16431957616653125598
5.71229999999999993321, 	 -1.69560545394654682561, 	 2.50758526518026059193, 	 5.14315993792828063391
5.71340000000000003411, 	 -1.78502568643934411696, 	 2.42707429509305327997, 	 5.12200188726867278177
5.71450000000000013500, 	 -1.87369550178075172653, 	 2.34700810482138244595, 	 5.10084984714168143682
5.71560000000000023590, 	 -1.96160962622099144248, 	 2.26739429792078173165, 	 5.07970727026955248817
5.71670000000000033680, 	 -2.04876287435093784595, 	 2.18824028285110250280, 	 5.05858068239146163592
5.71780000000000043769, 	 -2.13515015102457050844, 	 2.10955327013993754193, 	 5.03747453929301514108
5.71890000000000053859, 	 -2.22076646138259592433, 	 2.03134028088573748150, 	 5.01639227886056460193
5.72000000000000063949, 	 -2.30560691639280879173, 	 1.95360816391168734540, 	 4.99533652615596768243
5.72109999999999985221, 	 -2.38966673605534962732, 	 1.87636361097465931280, 	 4.97430921151283200743
5.72219999999999995310, 	 -2.47294124860189645787, 	 1.79961316838465390511, 	 4.95331112100176795821
5.72330000000000005400, 	 -2.55542578740865788944, 	 1.72336324559858522498, 	 4.93234310693189836883
5.72440000000000015490, 	 -2.63711584255619779782, 	 1.64762012126785761801, 	 4.91140610324690296551
5.72550000000000025580, 	 -2.71800713786114256365, 	 1.57238994683086574788, 	 4.89050052792988942940
5.72660000000000035669, 	 -2.79809550799328565773, 	 1.49767874793618371854, 	 4.86962654807091688269
5.72770000000000045759, 	 -2.87737689399316876049, 	 1.42349242450472535104, 	 4.84878414840470828295
5.72880000000000055849, 	 -2.95584729070783458482, 	 1.34983674983581258822, 	 4.82797327774845541626
5.72990000000000065938, 	 -3.03350277957834446596, 	 1.27671736921258727193, 	 4.80719195977307212075
5.73099999999999987210, 	 -3.11033966968209085735, 	 1.20413979614938071450, 	 4.78643937971316191238
5.73209999999999997300, 	 -3.18635436822403006474, 	 1.13210940582343355665, 	 4.76571516520585447552
5.73320000000000007390, 	 -3.26154334429342585011, 	 1.06063143201687903883, 	 4.74501890369494372379
5.73430000000000017479, 	 -3.33590323256972798305, 	 0.98971096929133650644, 	 4.72435073014146578174
5.73540000000000027569, 	 -3.40943075435773712556, 	 0.91935297399401638696, 	 4.70371181892999246088
5.73650000000000037659, 	 -3.48212274748186567663, 	 0.84956226339222151722, 	 4.68310396720632304834
5.73760000000000047748, 	 -3.55397615299933944399, 	 0.78034351399620993650, 	 4.66252925692795283652
5.73870000000000057838, 	 -3.62498801372217727135, 	 0.71170125885603408022, 	 4.64198994851273205597
5.73980000000000067928, 	 -3.69515546843486886175, 	 0.64363988535789018464, 	 4.62148837903902087731
5.74089999999999989200, 	 -3.76447478826439541066, 	 0.57616363476858400983, 	 4.60102688277162208408
5.74199999999999999289, 	 -3.83293975198467418153, 	 0.50927660331948976236, 	 4.58060773408118571126
5.74310000000000009379, 	 -3.90054559529698519071, 	 0.44298274380811580864, 	 4.56023307611601236289
5.74420000000000019469, 	 -3.96728891073300360404, 	 0.37728586696058868943, 	 4.53990455390404168412
5.74530000000000029559, 	 -4.03316716633381044943, 	 0.31218964214289907089, 	 4.51962369290431986713
5.74640000000000039648, 	 -4.09817839707664610671, 	 0.24769759292730825218, 	 4.49939265960271228550
5.74750000000000049738, 	 -4.16232097692115132759, 	 0.18381309058770944898, 	 4.47921331882966988758
5.74860000000000059828, 	 -4.22559344644627632448, 	 0.12053935243378074982, 	 4.45908726582004977246
5.74970000000000069917, 	 -4.28799438159914192426, 	 0.05787943513295364800, 	 4.43901596178464696862
5.75079999999999991189, 	 -4.34952229307523108304, 	 -0.00416359891664574381, 	 4.41900096163672895244
5.75190000000000001279, 	 -4.41017554841584402681, 	 -0.06558602322214882041, 	 4.39904369798294947458
5.75300000000000011369, 	 -4.46995231083086075330, 	 -0.12638414339257719732, 	 4.37914550322812523575
5.75410000000000021458, 	 -4.52885049024230124104, 	 -0.18655492979009927201, 	 4.35930760754228696641
5.75520000000000031548, 	 -4.58686770320186987249, 	 -0.24609555677238464932, 	 4.33953080910787214464
5.75630000000000041638, 	 -4.64400123923356478173, 	 -0.30500328409950200337, 	 4.31981658342718066734
5.75740000000000051728, 	 -4.70024803182465422680, 	 -0.36327546795994741791, 	 4.30016577253629339594
5.75850000000000061817, 	 -4.75560463278420986200, 	 -0.42090958040659370853, 	 4.28057901989316391678
5.75960000000000071907, 	 -4.81006718907202213131, 	 -0.47790320960145571405, 	 4.26105685513851728530
5.76069999999999993179, 	 -4.86363142151141047975, 	 -0.53425404509777352224, 	 4.24159950447442479771
5.76180000000000003268, 	 -4.91629260505190313069, 	 -0.58995987171268038374, 	 4.22220770547062240752
5.76290000000000013358, 	 -4.96804555044449180912, 	 -0.64501856874376639617, 	 4.20288235417294586682
5.76400000000000023448, 	 -5.01888458732773568016, 	 -0.69942810359996909764, 	 4.18362445964530138554
5.76510000000000033538, 	 -5.06880354880318240163, 	 -0.75318652728243351557, 	 4.16443515853536716520
5.76620000000000043627, 	 -5.11779575762997485100, 	 -0.80629197019904430555, 	 4.14531569231373087092
5.76730000000000053717, 	 -5.16585401420585288434, 	 -0.85874263810183926182, 	 4.12626737050454295286
5.76840000000000063807, 	 -5.21297058713726002566, 	 -0.91053680515762891456, 	 4.10729155940465151531
5.76949999999999985079, 	 -5.25913720798085559949, 	 -0.96167280916965791615, 	 4.08838968003182579025
5.77059999999999995168, 	 -5.30434506331085309228, 	 -1.01214904423146290213, 	 4.06956317546863832746
5.77170000000000005258, 	 -5.34858479015709331605, 	 -1.06196395420224476425, 	 4.05081345429803096891
5.77280000000000015348, 	 -5.39184647577362952120, 	 -1.11111602814462240296, 	 4.03214200522465038290
5.77390000000000025437, 	 -5.43411966025025439109, 	 -1.15960379145020642255, 	 4.01355034925007192470
5.77500000000000035527, 	 -5.47539334202862804091, 	 -1.20742579607873046221, 	 3.99503997055565474028
5.77610000000000045617, 	 -5.51565598635287202001, 	 -1.25458061168756218606, 	 3.97661231298193884598
5.77720000000000055707, 	 -5.55489553667671476234, 	 -1.30106681694305259533, 	 3.95826872673622887078
5.77830000000000065796, 	 -5.59309942896223954989, 	 -1.34688299115076626222, 	 3.94001040024629256564
5.77939999999999987068, 	 -5.63025460920331255465, 	 -1.39202770804432440777, 	 3.92183868529506041156
5.78049999999999997158, 	 -5.66634755424884861696, 	 -1.43649952752584564308, 	 3.90375490519663381761
5.78160000000000007248, 	 -5.70136429182482196154, 	 -1.48029698418421751249, 	 3.88576032973961194017
5.78270000000000017337, 	 -5.73529042902754948585, 	 -1.52341857793851920277, 	 3.86785618471511272176
5.78380000000000027427, 	 -5.76811118277989631764, 	 -1.56586276616436870235, 	 3.85004365669021719754
5.78490000000000037517, 	 -5.79981140103802861319, 	 -1.60762795627856980296, 	 3.83232389666135686568
5.78600000000000047606, 	 -5.83037559234431057575, 	 -1.64871249855564294684, 	 3.81469802359803411562
5.78710000000000057696, 	 -5.85978795812867669923, 	 -1.68911467917401680872, 	 3.79716712806433331906
5.78820000000000067786, 	 -5.88803242575061780428, 	 -1.72883271352547973621, 	 3.77973227591439098205
5.78929999999999989058, 	 -5.91509268241323837856, 	 -1.76786473981884895146, 	 3.76239447538842863850
5.79039999999999999147, 	 -5.94095220946577917687, 	 -1.80620881300202107411, 	 3.74515467457471329382
5.79150000000000009237, 	 -5.96559431743890655753, 	 -1.84386289909885969784, 	 3.72801401949203059516
5.79260000000000019327, 	 -5.98900218234626358083, 	 -1.88082487025187994334, 	 3.71097352210934516847
5.79370000000000029416, 	 -6.01115887783568592084, 	 -1.91709249951457150196, 	 3.69403415683838387551
5.79480000000000039506, 	 -6.03204740993031141016, 	 -1.95266345587694822861, 	 3.67719684963829784863
5.79590000000000049596, 	 -6.05165075038713329292, 	 -1.98753530002141642896, 	 3.66046248458767520262
5.79700000000000059686, 	 -6.06995187016491399845, 	 -2.02170548053308962722, 	 3.64383191948644213909
5.79810000000000069775, 	 -6.08693377851415551305, 	 -2.05517133056550571624, 	 3.62730600254650692449
5.79919999999999991047, 	 -6.10257955122253825664, 	 -2.08793006506003209211, 	 3.61088551801518464757
5.80030000000000001137, 	 -6.11687234902410281734, 	 -2.11997877974969739512, 	 3.59457129094984750850
5.80140000000000011227, 	 -6.12979544679140886387, 	 -2.15131445084985806204, 	 3.57836426415991093464
5.80250000000000021316, 	 -6.14133225965655338285, 	 -2.18193393124843737496, 	 3.56226542480885122188
5.80360000000000031406, 	 -6.15145786534549099400, 	 -2.21183394810960898269, 	 3.54627580763826566468
5.80470000000000041496, 	 -6.16016853970664168827, 	 -2.24101110243335677197, 	 3.53039649946090294819
5.80580000000000051585, 	 -6.16744323740156286107, 	 -2.26946186923820514281, 	 3.51462864079901748937
5.80690000000000061675, 	 -6.17328910287959242709, 	 -2.29718259805608049362, 	 3.49897342581469050771
5.80800000000000071765, 	 -6.17776202781979932865, 	 -2.32416951517108616443, 	 3.48343210120492052795
5.80909999999999993037, 	 -6.18069793038344261760, 	 -2.35041872757673964145, 	 3.46800596448185727283
5.81020000000000003126, 	 -6.18211458642483702164, 	 -2.37592623072829578490, 	 3.45269636193159046300
5.81130000000000013216, 	 -6.18202832810207869585, 	 -2.40068793162071925096, 	 3.43750468646124485161
5.81240000000000023306, 	 -6.18043123907676239526, 	 -2.42469967535630726019, 	 3.42243237547952006139
5.81350000000000033396, 	 -6.17730904398132096844, 	 -2.44795722810227900368, 	 3.40748090890263988229
5.81460000000000043485, 	 -6.17264534075542758984, 	 -2.47045623500061939382, 	 3.39265180600061766469
5.81570000000000053575, 	 -6.16642237569293882871, 	 -2.49219220080440884146, 	 3.37794661828739295473
5.81680000000000063665, 	 -6.15860267488428370086, 	 -2.51316049573526134608, 	 3.36336693769099603912
5.81789999999999984936, 	 -6.14915224409486427248, 	 -2.53335636914101725026, 	 3.34891439588057249210
5.81899999999999995026, 	 -6.13804549723993986277, 	 -2.55277496183551066977, 	 3.33459066045982810422
5.82010000000000005116, 	 -6.12525919444516464551, 	 -2.57141131097078412537, 	 3.32039743350155003299
5.82120000000000015206, 	 -6.11077261723115405800, 	 -2.58926034235259594496, 	 3.30633645066339632024
5.82230000000000025295, 	 -6.09456656285955133967, 	 -2.60631685266059687223, 	 3.29240948059305615914
5.82340000000000035385, 	 -6.07715416275877196028, 	 -2.62257548984724175867, 	 3.27861831896493960414
5.82450000000000045475, 	 -6.05851512948625359201, 	 -2.63803073802926979496, 	 3.26496475272248032340
5.82560000000000055564, 	 -6.03855506376770279076, 	 -2.65267691235608049638, 	 3.25145063323814120793
5.82670000000000065654, 	 -6.01724967506587393729, 	 -2.66650819587300569324, 	 3.23807786812755304950
5.82779999999999986926, 	 -5.99454164736437178362, 	 -2.67951879930135650199, 	 3.22484839770713671570
5.82889999999999997016, 	 -5.97039147990583796144, 	 -2.69170319367136290367, 	 3.21176419418928471572
5.83000000000000007105, 	 -5.94475087508671506953, 	 -2.70305627110602353369, 	 3.19882726225980018597
5.83110000000000017195, 	 -5.91749243454643014672, 	 -2.71357338109676460292, 	 3.18603963966453607171
5.83220000000000027285, 	 -5.88851258932134946633, 	 -2.72325027381771977986, 	 3.17340339760889422749
5.83330000000000037375, 	 -5.85785126120518739867, 	 -2.73208299909018004215, 	 3.16092064057354527051
5.83440000000000047464, 	 -5.82550677410989337091, 	 -2.74006777480502883293, 	 3.14859347441267445333
5.83550000000000057554, 	 -5.79147103803733998006, 	 -2.74720082542811994131, 	 3.13642403249148804534
5.83660000000000067644, 	 -5.75573323301084460724, 	 -2.75347822456053492601, 	 3.12441455428100978153
5.83769999999999988916, 	 -5.71800692679545008446, 	 -2.75889579749302704670, 	 3.11256727400447674725
5.83879999999999999005, 	 -5.67833968136065436738, 	 -2.76344909444721498204, 	 3.10088444294947196411
5.83990000000000009095, 	 -5.63681615152697368387, 	 -2.76713340342185354359, 	 3.08936831735110484232
5.84100000000000019185, 	 -5.59346167819935580212, 	 -2.76994376055223279209, 	 3.07802114429835427245
5.84210000000000029274, 	 -5.54828947725652543710, 	 -2.77187492268076463020, 	 3.06684515928127998663
5.84320000000000039364, 	 -5.50131559741664943886, 	 -2.77292132410015756960, 	 3.05584258172654621433
5.84430000000000049454, 	 -5.45253604402644320714, 	 -2.77307707387506097163, 	 3.04501561288811739558
5.84540000000000059543, 	 -5.40195880115367721430, 	 -2.77233600947986635887, 	 3.03436643774562053721
5.84650000000000069633, 	 -5.34957347816687445174, 	 -2.77069177594089266492, 	 3.02389722936613125626
5.84759999999999990905, 	 -5.29537140057172983632, 	 -2.76813789861268677583, 	 3.01361015485146221948
5.84870000000000000995, 	 -5.23935799902618004609, 	 -2.76466784023920952862, 	 3.00350738222481039585
5.84980000000000011084, 	 -5.18153547891592936026, 	 -2.76027503278549257715, 	 2.99359108769977444453
5.85090000000000021174, 	 -5.12190837402980925219, 	 -2.75495290485766330946, 	 2.98386346282552494813
5.85200000000000031264, 	 -5.06042358304977391015, 	 -2.74869490556557138916, 	 2.97432672106884643526
5.85310000000000041354, 	 -4.99704659184001709349, 	 -2.74149452283333072700, 	 2.96498310349664961905
5.85420000000000051443, 	 -4.93177572981885425918, 	 -2.73334530480843485023, 	 2.95583488334939348263
5.85530000000000061533, 	 -4.86461336995077076040, 	 -2.72424085606192889486, 	 2.94688436941574805061
5.85640000000000071623, 	 -4.79556978653618415365, 	 -2.71417484218173576949, 	 2.93813390821118947116
5.85749999999999992895, 	 -4.72465184321545272894, 	 -2.70314098300523308893, 	 2.92958587965669936537
5.85860000000000002984, 	 -4.65186974722040336161, 	 -2.69113303077069510039, 	 2.92124268351974647473
5.85970000000000013074, 	 -4.57723313937247411332, 	 -2.67814477405516537800, 	 2.91310677575915288884
5.86080000000000023164, 	 -4.50074910947261486172, 	 -2.66417002659163237865, 	 2.90518065837046624011
5.86190000000000033253, 	 -4.42242952552865276061, 	 -2.64920265599189397321, 	 2.89746686848179946239
5.86300000000000043343, 	 -4.34228546139789273184, 	 -2.63323657392922028109, 	 2.88996797487833934071
5.86410000000000053433, 	 -4.26033018741310787192, 	 -2.61626577299123264098, 	 2.88268657358183544304
5.86520000000000063523, 	 -4.17657762209629979111, 	 -2.59828433663593250103, 	 2.87562528437590669839
5.86629999999999984794, 	 -4.09102975863930318212, 	 -2.57928647174656777707, 	 2.86878675135538285801
5.86739999999999994884, 	 -4.00368584717161546394, 	 -2.55926650326233762200, 	 2.86217363960115056543
5.86850000000000004974, 	 -3.91454801184219691734, 	 -2.53821892080029565264, 	 2.85578863177970809772
5.86960000000000015064, 	 -3.82362196170370971515, 	 -2.51613835259206730655, 	 2.84963442513176046234
5.87070000000000025153, 	 -3.73091818801324537347, 	 -2.49301961150241258025, 	 2.84371370912085419391
5.87180000000000035243, 	 -3.63644061821020070369, 	 -2.46885769497514484527, 	 2.83802918329751330262
5.87290000000000045333, 	 -3.54019700118765623387, 	 -2.44364776548257500721, 	 2.83258360081171511879
5.87400000000000055422, 	 -3.44219687884789360410, 	 -2.41738520548097080010, 	 2.82737968868885358731
5.87510000000000065512, 	 -3.34245287635788779212, 	 -2.39006553344054184507, 	 2.82242017702825265246
5.87619999999999986784, 	 -3.24098091221392170524, 	 -2.36168447988153973327, 	 2.81770779907771107275
5.87729999999999996874, 	 -3.13779597803814835899, 	 -2.33223783865456413267, 	 2.81324528715675370449
5.87840000000000006963, 	 -3.03291546901583153328, 	 -2.30172146369228380891, 	 2.80903536692825328558
5.87950000000000017053, 	 -2.92635546216256736685, 	 -2.27013174041195187058, 	 2.80508075085922259362
5.88060000000000027143, 	 -2.81813093840630379816, 	 -2.23746506787325039056, 	 2.80138413149331766405
5.88170000000000037232, 	 -2.70825707999615472588, 	 -2.20371789009062890585, 	 2.79794817394616668338
5.88280000000000047322, 	 -2.59675002497759788156, 	 -2.16888694044900098845, 	 2.79477550744586844544
5.88390000000000057412, 	 -2.48362533013202035903, 	 -2.13296933495888429988, 	 2.79186867393421866979
5.88500000000000067502, 	 -2.36889714052619204665, 	 -2.09596236063571561559, 	 2.78923023140091386196
5.88609999999999988773, 	 -2.25258173397989347464, 	 -2.05786346862200808516, 	 2.78686272713117899613
5.88719999999999998863, 	 -2.13469605471180789991, 	 -2.01867039949334747817, 	 2.78476865784657290348
5.88830000000000008953, 	 -2.01525811328843618142, 	 -1.97838112660056419934, 	 2.78295047209752066664
5.88940000000000019043, 	 -1.89428815394191940591, 	 -1.93699381584416019386, 	 2.78141057216530684926
5.89050000000000029132, 	 -1.77180909683452281200, 	 -1.89450689060534305241, 	 2.78015131372743828919
5.89160000000000039222, 	 -1.64784217953820677494, 	 -1.85091894658469113821, 	 2.77917497166423821398
5.89270000000000049312, 	 -1.52240625239081550646, 	 -1.80622881763959819423, 	 2.77848382210836097883
5.89380000000000059401, 	 -1.39552183826595532778, 	 -1.76043571895465644772, 	 2.77799974425084039709
5.89490000000000069491, 	 -1.26721026728544416962, 	 -1.71353904154922243031, 	 2.77769676010299315649
5.89599999999999990763, 	 -1.13749326420303598084, 	 -1.66553847164943036319, 	 2.77759333521725304550
5.89710000000000000853, 	 -1.00639350830176788065, 	 -1.61643404110575361621, 	 2.77769716869814109472
5.89820000000000010942, 	 -0.87393426455080713833, 	 -1.56622592898766543890, 	 2.77801648656903488188
5.89930000000000021032, 	 -0.74013930329368604610, 	 -1.51491479624549674199, 	 2.77856004101370102077
5.90040000000000031122, 	 -0.60503302363207400738, 	 -1.46250157913149991806, 	 2.77933675739924757053
5.90150000000000041211, 	 -0.46864029551833807918, 	 -1.40898759188206912363, 	 2.78035542743677410726
5.90260000000000051301, 	 -0.33098651162484848953, 	 -1.35437464031585097501, 	 2.78162450867214250394
5.90370000000000061391, 	 -0.19209760394387553895, 	 -1.29866468504044907384, 	 2.78315199905542032255
5.90480000000000071481, 	 -0.05199987853061676518, 	 -1.24185960418008134454, 	 2.78494543418968598658
5.90589999999999992752, 	 0.08927966858009864226, 	 -1.18397062359768479034, 	 2.78701177299654156982
5.90700000000000002842, 	 0.23171183080989768421, 	 -1.12499495447002795245, 	 2.78935739829921747202
5.90810000000000012932, 	 0.37526971356179211758, 	 -1.06493976893083952540, 	 2.79198813256903033420
5.90920000000000023022, 	 0.51992569480859163189, 	 -1.00380283282978344239, 	 2.79490926248495652473
5.91030000000000033111, 	 0.66565145800978675616, 	 -0.94159015917908395199, 	 2.79812555270045537625
