x [cm], 	 0.25592592592592589007, 	 34.54999999999999715783, 	 68.84407407407405798949
0.00000000000000000000, 	 0.00000000000000000000, 	 0.00000000000000000000, 	 0.00000000000000000000
5.70020000000000059970, 	 6.29554739063800816723, 	 10.97342061791287015637, 	 21.99561599122922928018
5.70130000000000070060, 	 6.52251619776143254370, 	 11.12556918976295783352, 	 21.97799097607781604324
5.70239999999999991331, 	 6.74948880333942025089, 	 11.27900742165297565123, 	 21.96099291483303517225
5.70350000000000001421, 	 6.97640688971712563671, 	 11.43369581794210887438, 	 21.94462123921240248592
5.70460000000000011511, 	 7.20321709511393226677, 	 11.58959440952974873085, 	 21.92887518738004359875
5.70570000000000021600, 	 7.43000135238452852349, 	 11.74666276890469696070, 	 21.91375380504691605665
5.70680000000000031690, 	 7.65699933472801586021, 	 11.90486002561353018336, 	 21.89925594713101375532
5.70790000000000041780, 	 7.88469784835724141203, 	 12.06414488222580772003, 	 21.88538027954040998679
5.70900000000000051870, 	 8.11393975388058130704, 	 12.22447563087548871863, 	 21.87212528078984874469
5.71010000000000061959, 	 8.34596162553905607240, 	 12.38581017074986867499, 	 21.85948924331727027948
5.71119999999999983231, 	 8.58247809779436821032, 	 12.54810602883497772098, 	 21.84747027448631584434
5.71229999999999993321, 	 8.82678977961650979012, 	 12.71132039119816958817, 	 21.83606629733424142614
5.71340000000000003411, 	 9.07979720302750159533, 	 12.87541015985438797031, 	 21.82527505115751864651
5.71450000000000013500, 	 9.34221410678441976927, 	 13.04033205974833897756, 	 21.81509409203235350105
5.71560000000000023590, 	 9.61635682892766752161, 	 13.20604282946216656569, 	 21.80552079335541648675
5.71670000000000033680, 	 9.90390433312541595967, 	 13.37249953532707280601, 	 21.79655234647132644454
5.71780000000000043769, 	 10.20593708614514660837, 	 13.53966005267364636211, 	 21.78818576143313734406
5.71890000000000053859, 	 10.52289795213935086338, 	 13.70748375092840198874, 	 21.78041990125686666602
5.72000000000000063949, 	 10.85534712179104310792, 	 13.87593238780480220385, 	 21.77325071412569457152
5.72109999999999985221, 	 11.20290350335290874284, 	 14.04497118648563080967, 	 21.76667116281534575251
5.72219999999999995310, 	 11.56485583317123655434, 	 14.21457006067701378527, 	 21.76067658429316864499
5.72330000000000005400, 	 11.94019862190957326220, 	 14.38470494507352981373, 	 21.75526308925149621132
5.72440000000000015490, 	 12.32772950973762959848, 	 14.55535917099247633644, 	 21.75042700814389107222
5.72550000000000025580, 	 12.72604542806655558707, 	 14.72652481015215997218, 	 21.74616462646049086516
5.72660000000000035669, 	 13.13372162650725982758, 	 14.89820390074502398647, 	 21.74247206579509850144
5.72770000000000045759, 	 13.54937712013742334705, 	 15.07040947006527709107, 	 21.73934524187935579675
5.72880000000000055849, 	 13.97173666617311305060, 	 15.24316627886750019627, 	 21.73677986275551532458
5.72990000000000065938, 	 14.39969799607869838098, 	 15.41651123335009820892, 	 21.73477140173994826000
5.73099999999999987210, 	 14.83236244129809122683, 	 15.59049343586534952522, 	 21.73331513174118256870
5.73209999999999997300, 	 15.26901119452131538878, 	 15.76517387045424101188, 	 21.73240615451031132466
5.73320000000000007390, 	 15.70914460721435901291, 	 15.94062474210165447630, 	 21.73188868643181947959
5.73430000000000017479, 	 16.15244304619218951302, 	 16.11692850840546498148, 	 21.73160932828801605865
5.73540000000000027569, 	 16.59873910849606204465, 	 16.29417665860637498554, 	 21.73164202474395523268
5.73650000000000037659, 	 17.04797034788863641097, 	 16.47246830657017468980, 	 21.73204757851004131908
5.73760000000000047748, 	 17.50015055691467580345, 	 16.65190866969102856388, 	 21.73287872167306744586
5.73870000000000057838, 	 17.95534147456571005819, 	 16.83260750432588892522, 	 21.73417477419528864857
5.73980000000000067928, 	 18.41362683423995960652, 	 17.01467756133672537544, 	 21.73596213561500434253
5.74089999999999989200, 	 18.87509055498449583865, 	 17.19823311598613457818, 	 21.73825672237576256407
5.74199999999999999289, 	 19.33979898165481259298, 	 17.38338861746350616500, 	 21.74106681888178016493
5.74310000000000009379, 	 19.80778803836962254081, 	 17.57025749313577378530, 	 21.74439873866064942831
5.74420000000000019469, 	 20.27905550058266470614, 	 17.75895113006046344140, 	 21.74826565203088435396
5.74530000000000029559, 	 20.75355803476679028563, 	 17.94957804335132678375, 	 21.75266314931504041397
5.74640000000000039648, 	 21.23121147848599221675, 	 18.14224322909307218765, 	 21.75758441835939649422
5.74750000000000049738, 	 21.71189397342424598492, 	 18.33704769073957407954, 	 21.76302343208470446712
5.74860000000000059828, 	 22.19545807111462565331, 	 18.53408812375460357202, 	 21.76897556676396661146
5.74970000000000069917, 	 22.68173281134198049358, 	 18.73345673462501181916, 	 21.77543772947037936660
5.75079999999999991189, 	 23.17053176816132520344, 	 18.93524118716246817939, 	 21.78240831260387011525
5.75190000000000001279, 	 23.66165934582993557456, 	 19.13952464936885888847, 	 21.78988711749539319840
5.75300000000000011369, 	 24.15491589224590640583, 	 19.34638597313331942473, 	 21.79787520621947649602
5.75410000000000021458, 	 24.65010157994443318330, 	 19.55589980192525345615, 	 21.80637483914659924267
5.75520000000000031548, 	 25.14701897902370930638, 	 19.76813759425424166238, 	 21.81538941852280188982
5.75630000000000041638, 	 25.64547451434722447061, 	 19.98313622070359940608, 	 21.82492344081097002118
5.75740000000000051728, 	 26.14527877417264889459, 	 20.20092313394919969483, 	 21.83498245893421696451
5.75850000000000061817, 	 26.64624610394113801703, 	 20.42153586727983238802, 	 21.84557304891600537644
5.75960000000000071907, 	 27.14819405633909354947, 	 20.64508072611121036743, 	 21.85678975964783887775
5.76069999999999993179, 	 27.65094270313881708034, 	 20.87160252103646840283, 	 21.86838685630495149326
5.76180000000000003268, 	 28.15431402418835205026, 	 21.10114190452696192324, 	 21.88040096807565859649
5.76290000000000013358, 	 28.65813118913759183215, 	 21.33373562609401119516, 	 21.89301308872994766830
5.76400000000000023448, 	 29.16221760415189123705, 	 21.56941600632238831281, 	 21.90622205479651185556
5.76510000000000033538, 	 29.66640095396103404823, 	 21.80821101950599327779, 	 21.92001137374994712559
5.76620000000000043627, 	 30.17051045787668073217, 	 22.05014428625959510555, 	 21.93438460839695025584
5.76730000000000053717, 	 30.67437808739460081142, 	 22.29523506613703531798, 	 21.95056407043236390564
5.76840000000000063807, 	 31.17783963964171789485, 	 22.54349825629693171436, 	 21.96815870060228803595
5.76949999999999985079, 	 31.68073546077068769478, 	 22.79494439097152991280, 	 21.98695921619493276467
5.77059999999999995168, 	 32.18291098585179810243, 	 23.04957964393054226093, 	 22.00658109980325249921
5.77170000000000005258, 	 32.68421711809997276532, 	 23.30740583793043541050, 	 22.02701967349206668700
5.77280000000000015348, 	 33.18451042790254490455, 	 23.56842046551144065347, 	 22.04834434745390581156
5.77390000000000025437, 	 33.68365321238871246123, 	 23.83261672836393785246, 	 22.07020218408661094145
5.77500000000000035527, 	 34.18151321302697454030, 	 24.09998359705193493596, 	 22.09236001820492489855
5.77610000000000045617, 	 34.67796214265610643679, 	 24.37050588344740376101, 	 22.11503382465151545944
5.77720000000000055707, 	 35.17287788363874767583, 	 24.64416431464434609211, 	 22.13837043962776363060
5.77830000000000065796, 	 35.66614246814430799759, 	 24.92093559986477302459, 	 22.16245450768530744767
5.77939999999999987068, 	 36.15764105655679117035, 	 25.20079248551981621063, 	 22.18733260820365771337
5.78049999999999997158, 	 36.64726165949218028572, 	 25.48370379597232826541, 	 22.21305325873435521089
5.78160000000000007248, 	 37.13489478081950778687, 	 25.76963446137728652729, 	 22.23965411831264660236
5.78270000000000017337, 	 37.62043301058805866433, 	 26.05854553934565132067, 	 22.26703160138449888450
5.78380000000000027427, 	 38.10376997953053290757, 	 26.35039424004101249466, 	 22.29510818363743851478
5.78490000000000037517, 	 38.58480190440020862752, 	 26.64513396281164148149, 	 22.32390579883888293011
5.78600000000000047606, 	 39.06342677781852046337, 	 26.94271434875474113824, 	 22.35347653905359521787
5.78710000000000057696, 	 39.53954378573625660920, 	 27.24308135018339172007, 	 22.38387479976967853190
5.78820000000000067786, 	 40.01305293180487865357, 	 27.54617731478505859855, 	 22.41514971590048332928
5.78929999999999989058, 	 40.48385623845997827175, 	 27.85194107973001464984, 	 22.44734161843321018637
5.79039999999999999147, 	 40.95185779411229276548, 	 28.16030807057049045738, 	 22.48048722606095495280
5.79150000000000009237, 	 41.41696340067053228040, 	 28.47121040199231600809, 	 22.51461818017825677885
5.79260000000000019327, 	 41.87908138094749688207, 	 28.78457698049916047012, 	 22.54976665904120736172
5.79370000000000029416, 	 42.33812239891423701010, 	 29.10033361025081433127, 	 22.58594474935956597506
5.79480000000000039506, 	 42.79399974145454166319, 	 29.41840310273755321191, 	 22.62314000729947593982
5.79590000000000049596, 	 43.24662942135526577658, 	 29.73870539029820392329, 	 22.66134075837288719413
5.79700000000000059686, 	 43.69593025957630771927, 	 30.06115764296593084737, 	 22.70054651037450454965
5.79810000000000069775, 	 44.14182390917260079277, 	 30.38567438793840835842, 	 22.74076496374219402696
5.79919999999999991047, 	 44.58413332169587306453, 	 30.71216763107306846337, 	 22.78200961413170233527
5.80030000000000001137, 	 45.02267757317375895809, 	 31.04054697947588437046, 	 22.82429529383319888325
5.80140000000000011227, 	 45.45747431017297657263, 	 31.37071976349951540897, 	 22.86763635485964840655
5.80250000000000021316, 	 45.88849423690582796098, 	 31.70259115644254777067, 	 22.91204733154624406666
5.80360000000000031406, 	 46.31569593631117953692, 	 32.03606429099005481476, 	 22.95754218949768699076
5.80470000000000041496, 	 46.73903275059228690225, 	 32.37104037178442439426, 	 23.00413057716428255617
5.80580000000000051585, 	 47.15845595754123564802, 	 32.70741878293328852578, 	 23.05182085354861953874
5.80690000000000061675, 	 47.57391640545855437949, 	 33.04509718967848641569, 	 23.10061973397016998888
5.80800000000000071765, 	 47.98536544041882478950, 	 33.38397163588416560742, 	 23.15053270560482090445
5.80909999999999993037, 	 48.39275546950715067851, 	 33.72393664065657503670, 	 23.20156330922024778829
5.81020000000000003126, 	 48.79604030786034485345, 	 34.06488529696360245680, 	 23.25371319461181229826
5.81130000000000013216, 	 49.19517538206053330896, 	 34.40670937377267080137, 	 23.30698305199441477953
5.81240000000000023306, 	 49.59011783476705659268, 	 34.74929942190489384757, 	 23.36137338765512083683
5.81350000000000033396, 	 49.98082656457833650165, 	 35.09254488293730389614, 	 23.41688673697003508778
5.81460000000000043485, 	 50.36726222849719647456, 	 35.43633420011465773314, 	 23.47352146206599243783
5.81570000000000053575, 	 50.74938722777986299661, 	 35.78055493019465416182, 	 23.53126949701959702566
5.81680000000000063665, 	 51.12716569085412743334, 	 36.12509385525327587629, 	 23.59011874896403426760
5.81789999999999984936, 	 51.50056346494194770003, 	 36.46983709368455350841, 	 23.65005693707175637996
5.81899999999999995026, 	 51.86954814355337362031, 	 36.81467020988916516444, 	 23.71107261843890867681
5.82010000000000005116, 	 52.23408902404889886384, 	 37.15947832236651748872, 	 23.77315547709868326365
5.82120000000000015206, 	 52.59415707660014049907, 	 37.50414621000572168441, 	 23.83629625577988520035
5.82230000000000025295, 	 52.94972494609312008151, 	 37.84855841635467044171, 	 23.90048586626991067305
5.82340000000000035385, 	 53.30076694398486836235, 	 38.19259935140049577740, 	 23.96571536156218584779
5.82450000000000045475, 	 53.64725900506428502013, 	 38.53615339102334047539, 	 24.03197566174285881857
5.82560000000000055564, 	 53.98917865069603294614, 	 38.87910497617466631937, 	 24.09925729615969913766
5.82670000000000065654, 	 54.32650494911957395061, 	 39.22133870843406100448, 	 24.16755033193570767480
5.82779999999999986926, 	 54.65921846748116053050, 	 39.56273944395518782358, 	 24.23684376335867796115
5.82889999999999997016, 	 54.98730121933709114046, 	 39.90319238441939830864, 	 24.30712574036988371518
5.83000000000000007105, 	 55.31073661064905877538, 	 40.24258316504096910649, 	 24.37838392962600053693
5.83110000000000017195, 	 55.62950938604195272319, 	 40.58079686474301439603, 	 24.45060482065475326863
5.83220000000000027285, 	 55.94360557589676830048, 	 40.91771850070770000229, 	 24.52377366836980598919
5.83330000000000037375, 	 56.25301244409531875590, 	 41.25323320801820159431, 	 24.59787495852196315127
5.83440000000000047464, 	 56.55771843661704423312, 	 41.58722823054221606753, 	 24.67289238497900782932
5.83550000000000057554, 	 56.85771312998099347169, 	 41.91959213506654435832, 	 24.74880886971480364878
5.83660000000000067644, 	 57.15298717885343648959, 	 42.25021442647463487674, 	 24.82560659368116162682
5.83769999999999988916, 	 57.44353226305002380059, 	 42.57898553722011314449, 	 24.90326703130751440085
5.83879999999999999005, 	 57.72934103466173638708, 	 42.90579693046554865532, 	 24.98177101589788051683
5.83990000000000009095, 	 58.01040706484226205930, 	 43.23054116262199642051, 	 25.06109890039467202882
5.84100000000000019185, 	 58.28672478778179311121, 	 43.55311194802829533046, 	 25.14123019633846567444
5.84210000000000029274, 	 58.55828944116144185728, 	 43.87340422180894705662, 	 25.22214378081175567559
5.84320000000000039364, 	 58.82509700505778482693, 	 44.19131420152692157899, 	 25.30381804237981313577
5.84430000000000049454, 	 59.08714416778791189699, 	 44.50673944591459729736, 	 25.38623090445496544021
5.84540000000000059543, 	 59.34442835316913544830, 	 44.81957891123548876067, 	 25.46935999403199701874
5.84650000000000069633, 	 59.59694769869762609460, 	 45.12973300561998257763, 	 25.55318240677479835199
5.84759999999999990905, 	 59.84470093470386586887, 	 45.43710364098697596091, 	 25.63767472055367591111
5.84870000000000000995, 	 60.08768722400376560699, 	 45.74159428259501680714, 	 25.72281326430693937368
5.84980000000000011084, 	 60.32590603255975736374, 	 46.04310999639574220055, 	 25.80857405526827719200
5.85090000000000021174, 	 60.55935698721923188259, 	 46.34155749388209954986, 	 25.89493261279524105589
5.85200000000000031264, 	 60.78803901223579231328, 	 46.63684517448999145017, 	 25.98186449971267109049
5.85310000000000041354, 	 61.01195135138669911612, 	 46.92888316597397135865, 	 26.06934563486989375747
5.85420000000000051443, 	 61.23109477755374996377, 	 47.21758336232551300782, 	 26.15735360014904742343
5.85530000000000061533, 	 61.44547580603000369592, 	 47.50285945885294580648, 	 26.24586501442683683649
5.85640000000000071623, 	 61.65509608293638166288, 	 47.78462698544200293327, 	 26.33485437248429050783
5.85749999999999992895, 	 61.85995544385718147851, 	 48.06280333806410709485, 	 26.42429438879999992196
5.85860000000000002984, 	 62.06005400506117553050, 	 48.33730780792980397109, 	 26.51415626167603889485
5.85970000000000013074, 	 62.25539165556345011510, 	 48.60806160770582806663, 	 26.60441064451487847009
5.86080000000000023164, 	 62.44596791020870085731, 	 48.87498789527965925572, 	 26.69502831280541954584
5.86190000000000033253, 	 62.63178189215025071235, 	 49.13801179560273624247, 	 26.78598046548718869531
5.86300000000000043343, 	 62.81283268540953912407, 	 49.39706042078812942009, 	 26.87723884035685628646
5.86410000000000053433, 	 62.98911960483126648569, 	 49.65206288833415015915, 	 26.96877572159061386969
5.86520000000000063523, 	 63.16064163766375116893, 	 49.90295033691690917976, 	 27.06056389021052055455
5.86629999999999984794, 	 63.32739738702978371521, 	 50.14965593977935753855, 	 27.15257655058606900411
5.86739999999999994884, 	 63.48938457133318280512, 	 50.39211491557582434098, 	 27.24478725317704430609
5.86850000000000004974, 	 63.64659907293594898192, 	 50.63026453626095246818, 	 27.33716982472463286058
5.86960000000000015064, 	 63.79903490712217717373, 	 50.86404413333550422749, 	 27.42969831117192214265
5.87070000000000025153, 	 63.94668600821064075035, 	 51.09339510036432585594, 	 27.52234693492682637839
5.87180000000000035243, 	 64.08954780230654080242, 	 51.31826089482203201442, 	 27.61509006726211623572
5.87290000000000045333, 	 64.22761694453421910112, 	 51.53858703700370114120, 	 27.70790223905336446819
5.87400000000000055422, 	 64.36089005414675057182, 	 51.75432110644727856652, 	 27.80075810582681583583
5.87510000000000065512, 	 64.48936489218574763527, 	 51.96541273818839101750, 	 27.89363242363025108261
5.87619999999999986784, 	 64.61304124348399113842, 	 52.17181361565057073904, 	 27.98650007259997707365
5.87729999999999996874, 	 64.73191400384257576661, 	 52.37347746105877632772, 	 28.07933607504439521563
5.87840000000000006963, 	 64.84597555479587072114, 	 52.57036002530800544719, 	 28.17211561402573138935
5.87950000000000017053, 	 64.95521788460224854589, 	 52.76241907668192254732, 	 28.26481405250072143076
5.88060000000000027143, 	 65.05963290453699698901, 	 52.94961438633504258178, 	 28.35740695263949362470
5.88170000000000037232, 	 65.15921266090975905172, 	 53.13190771338891948972, 	 28.44987009495621776978
5.88280000000000047322, 	 65.25395362038328528342, 	 53.30926279005249313059, 	 28.54217949694273315231
5.88390000000000057412, 	 65.34385764944508423469, 	 53.48164530594783627748, 	 28.63431143096568831652
5.88500000000000067502, 	 65.42892615425128610696, 	 53.64902289168137627939, 	 28.72624244125412218409
5.88609999999999988773, 	 65.50915360109203788852, 	 53.81136510154775720594, 	 28.81794935986206240841
5.88719999999999998863, 	 65.58452614593663554388, 	 53.96864339394215193124, 	 28.90940932153729292509
5.88830000000000008953, 	 65.65502400442069586006, 	 54.12083111142649727299, 	 29.00059977746360218021
5.88940000000000019043, 	 65.72062304956719458460, 	 54.26790346038534806894, 	 29.09149850787078506187
5.89050000000000029132, 	 65.78129547585626824002, 	 54.40983749038021244360, 	 29.18208363352599832297
5.89160000000000039222, 	 65.83701051593494923964, 	 54.54661207368231856663, 	 29.27233362613364064941
5.89270000000000049312, 	 65.88773547264383978472, 	 54.67820788495349404457, 	 29.36222731767963267657
5.89380000000000059401, 	 65.93339778325086797395, 	 54.80460738045349700087, 	 29.45174390876127290539
5.89490000000000069491, 	 65.97394991539103159539, 	 54.92579477577429969415, 	 29.54086297658883353279
5.89599999999999990763, 	 66.00937917020584677630, 	 55.04175602103362763273, 	 29.62956449649186652096
5.89710000000000000853, 	 66.03966896211555592799, 	 55.15247877263056608399, 	 29.71782883322069679366
5.89820000000000010942, 	 66.06478549277082379376, 	 55.25795236103093799329, 	 29.80563673016649772762
5.89930000000000021032, 	 66.08467747937594083396, 	 55.35816775372757092555, 	 29.89296932239877335746
5.90040000000000031122, 	 66.09928143885476004016, 	 55.45311751116558696140, 	 29.97980814218275469329
5.90150000000000041211, 	 66.10852805548654487211, 	 55.54279573757178667393, 	 30.06613523586532110698
5.90260000000000051301, 	 66.11238718145196457954, 	 55.62719802815151126651, 	 30.15193287854413739524
5.90370000000000061391, 	 66.11081631026668503637, 	 55.70632141462581188307, 	 30.23718373240019730019
5.90480000000000071481, 	 66.10377422304722472290, 	 55.78016431085121240585, 	 30.32187206016082114957
5.90589999999999992752, 	 66.09118028745868400620, 	 55.84872645807436697396, 	 30.40598296758382801386
5.90700000000000002842, 	 66.07287388118474780185, 	 55.91200886720751128678, 	 30.48950163797642787245
5.90810000000000012932, 	 66.04882176148112193914, 	 55.97001376007993656003, 	 30.57241295210002718363
