x [cm], 	 0.40000000000000002220, 	 2.00000000000000000000, 	 3.60000000000000008882
0.00000000000000000000, 	 0.00000000000000000000, 	 0.00000000000000000000, 	 0.00000000000000000000
5.70020000000000059970, 	 4.18488962302723788156, 	 6.10513132748771703007, 	 8.05444118573133316374
5.70130000000000070060, 	 5.33291697225650818126, 	 6.69910964542249498521, 	 8.37654288593236984184
5.70239999999999991331, 	 7.92013201385268850174, 	 8.67655545956739437941, 	 9.85559414839995184821
5.70350000000000001421, 	 11.71345850172709823767, 	 11.96116002287392632297, 	 12.61692691419867351499
5.70460000000000011511, 	 16.34094012579843280264, 	 16.19983925950793590687, 	 16.33940447862470435325
5.70570000000000021600, 	 21.51289790630197273913, 	 21.11092423905502712955, 	 20.77057130354458536203
5.70680000000000031690, 	 26.89519119684586101471, 	 26.26253632512122848652, 	 25.48142855019791142013
5.70790000000000041780, 	 32.15866414350617219498, 	 31.30901022574994030379, 	 30.20753743337456853624
5.70900000000000051870, 	 37.13174475522044559739, 	 36.09468804985144885222, 	 34.77461638307886460098
5.71010000000000061959, 	 41.80320942344931722801, 	 40.62158500131172189640, 	 39.17076901352048423632
5.71119999999999983231, 	 46.28475348912074593954, 	 44.97986085827258762038, 	 43.43710949219184414005
5.71229999999999993321, 	 50.67998074260547980430, 	 49.25129013144488254738, 	 47.62101622880829410178
5.71340000000000003411, 	 55.06105948481327061472, 	 53.50363286807429830105, 	 51.77543167258479428483
5.71450000000000013500, 	 59.46749477535578165543, 	 57.77732168584028471514, 	 55.93667003798210402010
5.71560000000000023590, 	 63.91103778703120497084, 	 62.08611534166124101830, 	 60.12172303659498595607
5.71670000000000033680, 	 68.38292566043082842953, 	 66.42388214268646606797, 	 64.33190188424175914861
5.71780000000000043769, 	 72.87060169710028390000, 	 70.78066411731508367211, 	 68.56072085331396692709
5.71890000000000053859, 	 77.36008776121201435672, 	 75.14183308364746949337, 	 72.79487954353693623943
5.72000000000000063949, 	 81.83812141275993212730, 	 79.49291093563439858372, 	 77.02066932449011460449
5.72109999999999985221, 	 86.29525847658983650490, 	 83.82336534201195377136, 	 81.22796557708386444574
5.72219999999999995310, 	 90.72765816022277363118, 	 88.12906044371656832936, 	 85.41322255947682151600
5.72330000000000005400, 	 95.13759960209986843438, 	 92.41303495012874691383, 	 89.58027707680757600883
5.72440000000000015490, 	 99.53226538821371605081, 	 96.68404205432935327735, 	 93.73860049199643640350
5.72550000000000025580, 	 103.92104190692808174390, 	 100.95333717781231541721, 	 97.89989323452719816032
5.72660000000000035669, 	 108.31238914786987947991, 	 105.23105062693298350496, 	 102.07450312309899231877
5.72770000000000045759, 	 112.71147402170102225227, 	 109.52350631511097844850, 	 106.26891374002069312610
5.72880000000000055849, 	 117.11925942853635262964, 	 113.83221227109586948245, 	 110.48486470155691563377
5.72990000000000065938, 	 121.53303806470015047125, 	 118.15446270430798847428, 	 114.71995853552130029129
5.73099999999999987210, 	 125.94787145905733893869, 	 122.48493030070993370373, 	 118.96914880136624503848
5.73209999999999997300, 	 130.35822422070415882445, 	 126.81747053274321501704, 	 123.22641421187329058284
5.73320000000000007390, 	 134.75923759170083826575, 	 131.14654185832347366159, 	 127.48610157671248543920
5.73430000000000017479, 	 139.14739001082224945094, 	 135.46797242459311405582, 	 131.74370002600858242658
5.73540000000000027569, 	 143.52057374321455540667, 	 139.77909965077049037063, 	 135.99605718774668616788
5.73650000000000037659, 	 147.87778337157789110279, 	 144.07848325053589633171, 	 140.24119468531662846544
5.73760000000000047748, 	 152.21864683175783738989, 	 148.36542974217087476063, 	 144.47792022657429811261
5.73870000000000057838, 	 156.54298334814589566122, 	 152.63952513582742653853, 	 148.70541253067557363465
5.73980000000000067928, 	 160.85049292890207084383, 	 156.90029212269493541498, 	 152.92289247245676619968
5.74089999999999989200, 	 165.14060651389371514597, 	 161.14701130502621140295, 	 157.12943119860409524335
5.74199999999999999289, 	 169.41247486401996980021, 	 165.37869116088810983456, 	 161.32389457411821354071
5.74310000000000009379, 	 173.66504878771314679398, 	 169.59414107284362671635, 	 165.50498990129278809036
5.74420000000000019469, 	 177.89719804955987569883, 	 173.79209253281237579358, 	 169.67136678425640639034
5.74530000000000029559, 	 182.10782443933325680518, 	 177.97131909151357831433, 	 173.82172374905573519754
5.74640000000000039648, 	 186.29593906810535486329, 	 182.13072048242256073536, 	 177.95488595155856614838
5.74750000000000049738, 	 190.46069203106029021910, 	 186.26935546469795212943, 	 182.06983571157002188556
5.74860000000000059828, 	 194.60135770258102638763, 	 190.38642570341272630685, 	 186.16569712744382059100
5.74970000000000069917, 	 198.71729073573618506998, 	 194.48122656349764270090, 	 190.24168859476912984974
5.75079999999999991189, 	 202.80787147868630881931, 	 198.55308514212254067388, 	 194.29706222694676398532
5.75190000000000001279, 	 206.87246075595840011374, 	 202.60131141622440509309, 	 198.33106293171297807021
5.75300000000000011369, 	 210.91037585538529697260, 	 206.62516400844381792012, 	 202.34287432778103266173
5.75410000000000021458, 	 214.92085728209380590670, 	 210.62380555932199399649, 	 206.33157441415804100870
5.75520000000000031548, 	 218.90306611823709204145, 	 214.59630507677874788897, 	 210.29614838143643851254
5.75630000000000041638, 	 222.85611142061711120732, 	 218.54166903465576865528, 	 214.23551735923419414576
5.75740000000000051728, 	 226.77908305887268625156, 	 222.45887654752019102489, 	 218.14856846600542894521
5.75850000000000061817, 	 230.67107553756832771796, 	 226.34690462906638686036, 	 222.03417663872272669323
5.75960000000000071907, 	 234.53125876903195035084, 	 230.20469130693422243894, 	 225.88962426224372848083
5.76069999999999993179, 	 238.35931761322959232530, 	 234.03114309771231660307, 	 229.71408339684739985387
5.76180000000000003268, 	 242.15466716935597446536, 	 237.82595160889630392376, 	 233.50781380198887404731
5.76290000000000013358, 	 245.91660023139363033806, 	 241.58852458331327284213, 	 237.27033324551339887876
5.76400000000000023448, 	 249.64414104457904386436, 	 245.31787874603992349876, 	 241.00066741043525553323
5.76510000000000033538, 	 253.33613375922666932638, 	 249.01276781471929666623, 	 244.69752486804330260384
5.76620000000000043627, 	 256.99138054110994744406, 	 252.67185571532860421939, 	 248.35948494072275138933
5.76730000000000053717, 	 260.60875196100141693023, 	 256.29385296544228367566, 	 251.98514121995719960978
5.76840000000000063807, 	 264.18724032574993998423, 	 259.87758734345658240272, 	 255.57318125582756351832
5.76949999999999985079, 	 267.72596173882146786127, 	 263.42201639461637796558, 	 259.12241078561822860138
5.77059999999999995168, 	 271.22412853569613844229, 	 266.92620495848632344860, 	 262.63174236378205250730
5.77170000000000005258, 	 274.68101325388676059447, 	 270.38929022735561602531, 	 266.10016796737443200982
5.77280000000000015348, 	 278.09591751373761780997, 	 273.81044909519602015280, 	 269.52672951267282996923
5.77390000000000025437, 	 281.46815119640558577885, 	 277.18887462968507406913, 	 272.91049521206224426351
5.77500000000000035527, 	 284.79702228043095146859, 	 280.52376333458670387699, 	 276.25054527101553958346
5.77610000000000045617, 	 288.08183551403033106908, 	 283.81431227062290645335, 	 279.54596748892328150760
5.77720000000000055707, 	 291.32189737015460195835, 	 287.05972374155595616685, 	 282.79586102517356493991
5.77830000000000065796, 	 294.51652441179288643980, 	 290.25921458303707822779, 	 285.99934591526465510469
5.77939999999999987068, 	 297.66505312947606398666, 	 293.41202780426073104536, 	 289.15557536527512638713
5.78049999999999997158, 	 300.76684813650416572273, 	 296.51744220130848361805, 	 292.26374549653650092296
5.78160000000000007248, 	 303.82130660352072482056, 	 299.57477791022063229320, 	 295.32310146378728177297
5.78270000000000017337, 	 306.82785928842588418775, 	 302.58339817169428442867, 	 298.33293990756357061400
5.78380000000000027427, 	 309.78596918518462643988, 	 305.54270822688715725235, 	 301.29260823360129961657
5.78490000000000037517, 	 312.69512855856459054849, 	 308.45215206199071644733, 	 304.20150154291860644662
5.78600000000000047606, 	 315.55485634684873730293, 	 311.31120991938303177449, 	 307.05906077143509946836
5.78710000000000057696, 	 318.36469519275459560959, 	 314.11939333864836498833, 	 309.86476399460042330247
5.78820000000000067786, 	 321.12420370029173000148, 	 316.87623472339720365198, 	 312.61811453304699170985
5.78929999999999989058, 	 323.83295154535994697653, 	 319.58128333474030569050, 	 315.31864154946543976621
5.79039999999999999147, 	 326.49052666784018583712, 	 322.23411656036239492096, 	 317.96591686407390398017
5.79150000000000009237, 	 329.09655199941317960111, 	 324.83436082046631554476, 	 320.55957764119733610642
5.79260000000000019327, 	 331.65070038687531450705, 	 327.38170824404278391739, 	 323.09934068617707225712
5.79370000000000029416, 	 334.15269779686241236050, 	 329.87591858292523738783, 	 325.58500024400018446613
5.79480000000000039506, 	 336.60231297765147928658, 	 332.31680551310773807927, 	 328.01641094780603680192
5.79590000000000049596, 	 338.99933944648574879466, 	 334.70421475408465994406, 	 330.39346437768557507297
5.79700000000000059686, 	 341.34357844342952148509, 	 337.03800391767265409726, 	 332.71606874796930242155
5.79810000000000069775, 	 343.63482919076261623559, 	 339.31803100930449090811, 	 334.98413769953043583882
5.79919999999999991047, 	 345.87288811875998817413, 	 341.54415319200694511892, 	 337.19758910747702884692
5.80030000000000001137, 	 348.05755468001814278978, 	 343.71623302185253123753, 	 339.35635095192668586606
5.80140000000000011227, 	 350.18863960818146097154, 	 345.83414751071876480637, 	 341.46036982349716026874
5.80250000000000021316, 	 352.26597193639696570244, 	 347.89779591331284791522, 	 343.50961822724201510937
5.80360000000000031406, 	 354.28940273911814529129, 	 349.90710393457766258507, 	 345.50409852186612624791
5.80470000000000041496, 	 356.25880540383411698713, 	 351.86202411535981582347, 	 347.44384328372626669079
5.80580000000000051585, 	 358.17407341285399979824, 	 353.76253333075823093168, 	 349.32891270319680643297
5.80690000000000061675, 	 360.03511677059276507862, 	 355.60862858411769593658, 	 351.15939011383875367756
5.80800000000000071765, 	 361.84185821564466323252, 	 357.40032242043065480175, 	 352.93537700220502983939
5.80909999999999993037, 	 363.59422999549542510067, 	 359.13763882671713645323, 	 354.65698831121335388161
5.81020000000000003126, 	 365.29217150898443833285, 	 360.82061004606987353327, 	 356.32434859015552319761
5.81130000000000013216, 	 366.93562784931373244035, 	 362.44927440650053540594, 	 357.93758915675539356016
5.81240000000000023306, 	 368.52454906417415259057, 	 364.02367500090480234576, 	 359.49684615925809794135
5.81350000000000033396, 	 370.05888985893062681498, 	 365.54385893081530412019, 	 361.00225927540185466569
5.81460000000000043485, 	 371.53860946807634491051, 	 367.00987680306360516624, 	 362.45397073487157513227
5.81570000000000053575, 	 372.96367147716523504641, 	 368.42178222027024503404, 	 363.85212439184044797003
5.81680000000000063665, 	 374.33404346787477834368, 	 369.77963110509830357842, 	 365.19686467243565175522
5.81789999999999984936, 	 375.64969645758503702382, 	 371.08348081348401592550, 	 366.48833534253583366080
5.81899999999999995026, 	 376.91060418566257794737, 	 372.33338908782275211706, 	 367.72667813966336325393
5.82010000000000005116, 	 378.11674234084267709477, 	 373.52941295323188342081, 	 368.91203136786953109549
5.82120000000000015206, 	 379.26808782651420415277, 	 374.67160766633134016956, 	 370.04452856340918742717
5.82230000000000025295, 	 380.36461813514307550577, 	 375.76002580053886958922, 	 371.12429731844395064400
5.82340000000000035385, 	 381.40631085741989636517, 	 376.79471648191923804916, 	 372.15145821205675247256
5.82450000000000045475, 	 382.39314307713510743270, 	 377.77572434786748090119, 	 373.12612315600040346908
5.82560000000000055564, 	 383.32509030875974076480, 	 378.70308803153960752752, 	 374.04839355773850684272
5.82670000000000065654, 	 384.20212574286284734626, 	 379.57683931468608307114, 	 374.91835978587323552347
5.82779999999999986926, 	 385.02421979563706599947, 	 380.39700102483510590901, 	 375.73609349657789380217
5.82889999999999997016, 	 385.79132655352020719874, 	 381.16356744541110401769, 	 376.50162727547211716228
5.83000000000000007105, 	 386.50339289173956558443, 	 381.87652943385575099455, 	 377.21500612528564033710
5.83110000000000017195, 	 387.16038874313238693503, 	 382.53590287477419451534, 	 377.87629613020340002549
5.83220000000000027285, 	 387.76230519924899908801, 	 383.14172178698112247730, 	 378.48557254882456390987
5.83330000000000037375, 	 388.30914065504219934155, 	 383.69402319371437215523, 	 379.04290701986286649117
5.83440000000000047464, 	 388.80088897840101935799, 	 384.19283448947652459537, 	 379.54835677030359875062
5.83550000000000057554, 	 389.23753361635198189106, 	 384.63816715492140474453, 	 380.00195926577401905888
5.83660000000000067644, 	 389.61904750474786851555, 	 385.03001663307105673084, 	 380.40373218296423374341
5.83769999999999988916, 	 389.94539677459874837950, 	 385.36836656468267392484, 	 380.75367786041988438228
5.83879999999999999005, 	 390.21654638212589816249, 	 385.65319537248240067129, 	 381.05179011013592571544
5.83990000000000009095, 	 390.43246533276987975114, 	 385.88448226439413701883, 	 381.29806000239739205426
5.84100000000000019185, 	 390.59312927412156568607, 	 386.06221002165767686165, 	 381.49247804487868052092
5.84210000000000029274, 	 390.69851958083813769917, 	 386.18636367133734665913, 	 381.63503220424701112279
5.84320000000000039364, 	 390.74861976918600703357, 	 386.25692613794552698891, 	 381.72570315608521696049
5.84430000000000049454, 	 390.74341115100327215259, 	 386.27387313709317595567, 	 381.76445911687983425509
5.84540000000000059543, 	 390.68286964014441764448, 	 386.23716949473572412899, 	 381.75125233813946579176
5.84650000000000069633, 	 390.56696478495842939083, 	 386.14676809671067303498, 	 381.68601836580631925244
5.84759999999999990905, 	 390.39566112932106989319, 	 386.00261160727410469917, 	 381.56867818208638709621
5.84870000000000000995, 	 390.16892125004096669727, 	 385.80463618791958424481, 	 381.39914237131495156063
5.84980000000000011084, 	 389.88670938635635820901, 	 385.55277595305386739710, 	 381.17731602047706473968
5.85090000000000021174, 	 389.54899465508054845486, 	 385.24696700109143421287, 	 380.90310321161177853355
5.85200000000000031264, 	 389.15575326372425024601, 	 384.88715032790946679597, 	 380.57641040623298067658
5.85310000000000041354, 	 388.70696957931249926332, 	 384.47327341334982975241, 	 380.19714846406117203514
5.85420000000000051443, 	 388.20263623171337030726, 	 384.00529064735110296169, 	 379.76523342743871580751
5.85530000000000061533, 	 387.64275360209933296574, 	 383.48316297506164573861, 	 379.28058643336447630645
5.85640000000000071623, 	 387.02732908380301068973, 	 382.90685720912523493098, 	 378.74313321780266505812
5.85749999999999992895, 	 386.35637644876112517522, 	 382.27634541268298562500, 	 378.15280365303368625973
5.85860000000000002984, 	 385.62991556148654126446, 	 381.59160466435474745595, 	 377.50953166240242353524
5.85970000000000013074, 	 384.84797250365687659723, 	 380.85261726582854180378, 	 376.81325552043523430257
5.86080000000000023164, 	 384.01057993266471157767, 	 380.05937117352749510246, 	 376.06391828729493909123
5.86190000000000033253, 	 383.11777743297210463425, 	 379.21186043948557653493, 	 375.26146835109352650761
5.86300000000000043343, 	 382.16961208216162049212, 	 378.31008610677730530369, 	 374.40586084254385923487
5.86410000000000053433, 	 381.16613976128815011180, 	 377.35405811615453330887, 	 373.49706021667526556485
5.86520000000000063523, 	 380.10742701824585765280, 	 376.34379773966060156454, 	 372.53504300762295997629
5.86629999999999984794, 	 378.99355243914567381580, 	 375.27933918420666259408, 	 371.51979923753697221400
5.86739999999999994884, 	 377.82460654216652073956, 	 374.16072929970005134237, 	 370.45133166781846512094
5.86850000000000004974, 	 376.60069011744769795769, 	 372.98802547471171919824, 	 369.32965333050367462420
5.86960000000000015064, 	 375.32191188665262870927, 	 371.76129285199448304411, 	 368.15478466981522842616
5.87070000000000025153, 	 373.98838670004397499724, 	 370.48060229787580510674, 	 366.92675172032448926984
5.87180000000000035243, 	 372.60023513078533596854, 	 369.14603007715828653090, 	 365.64558614034336869736
5.87290000000000045333, 	 371.15758459250247369710, 	 367.75765932783343714618, 	 364.31132707748923849067
5.87400000000000055422, 	 369.66057151885019038673, 	 366.31558280497671375997, 	 362.92402432514410293152
5.87510000000000065512, 	 368.10934389091795537752, 	 364.81990603849050103236, 	 361.48374183008940008222
5.87619999999999986784, 	 366.50406334731923152503, 	 363.27074999364060658991, 	 359.99056062593547267170
5.87729999999999996874, 	 364.84490640946756911944, 	 361.66825270604749675840, 	 358.44458071824305989139
5.87840000000000006963, 	 363.13206479229825163202, 	 360.01256985415659528371, 	 356.84592189501717029998
5.87950000000000017053, 	 361.36574505359919839975, 	 358.30387453500384253857, 	 355.19472369781607312689
5.88060000000000027143, 	 359.54616786937356209819, 	 356.54235648559347282571, 	 353.49114456145764506800
5.88170000000000037232, 	 357.67356686629182149773, 	 354.72822067639719989529, 	 351.73536030903619575838
5.88280000000000047322, 	 355.74818749391062056020, 	 352.86168605382505347734, 	 349.92756325672939965443
5.88390000000000057412, 	 353.77028891821248635097, 	 350.94298985703932203251, 	 348.06797145821241201702
5.88500000000000067502, 	 351.74015362492997383015, 	 348.97240032363242789870, 	 346.15684252732006598308
5.88609999999999988773, 	 349.65809325496718429349, 	 346.95022092328076723788, 	 344.19447161347920882690
5.88719999999999998863, 	 347.52444006099682383137, 	 344.87677728634957929899, 	 342.18117289057050811607
5.88830000000000008953, 	 345.33952968195507082783, 	 342.75239627899867400629, 	 340.11725814659365596526
5.88940000000000019043, 	 343.10368813968949552873, 	 340.57739195338490389986, 	 338.00302565172438562513
5.89050000000000029132, 	 340.81917583870352927988, 	 338.35200474088469491107, 	 335.83885416973987503297
5.89160000000000039222, 	 338.48990313628291914938, 	 336.07743808319065692558, 	 333.62395882059524865326
5.89270000000000049312, 	 336.11181265746239432701, 	 333.75290160644641446197, 	 331.35825112234135758627
5.89380000000000059401, 	 333.68316615954910275832, 	 331.37739982813428696318, 	 329.04150535430977697615
5.89490000000000069491, 	 331.20375423826982341780, 	 328.95091572549313241325, 	 326.67385801097907460644
5.89599999999999990763, 	 328.67422597716961263359, 	 326.47419397404860319511, 	 324.25606323566472610764
5.89710000000000000853, 	 326.09551835895132398946, 	 323.94832417253826406522, 	 321.78922998793586884858
5.89820000000000010942, 	 323.46858386235800253417, 	 321.37439224618094613106, 	 319.27446556871007032896
5.89930000000000021032, 	 320.79421907829635074449, 	 318.75329447594816656419, 	 316.71269567377612474957
5.90040000000000031122, 	 318.07301103418359389252, 	 316.08567943562053415008, 	 314.10462725283855434100
5.90150000000000041211, 	 315.30541969909751287560, 	 313.37205603677807630447, 	 311.45085050341407395535
5.90260000000000051301, 	 312.49186586558744238573, 	 310.61287415594296135168, 	 308.75187219595659371407
