x [cm], 	 0.69214285714285717077, 	 48.45000000000000284217, 	 96.20785714285715073402
0.00000000000000000000, 	 0.00000000000000000000, 	 0.00000000000000000000, 	 0.00000000000000000000
5.70020000000000059970, 	 0.32220684693754730876, 	 1.90709919026784580076, 	 3.54755135548669775503
5.70130000000000070060, 	 0.34184133072851835555, 	 1.91148262761884879524, 	 3.53475969917013665977
5.70239999999999991331, 	 0.36188962286483422615, 	 1.91612309146106074564, 	 3.52213870370082249295
5.70350000000000001421, 	 0.38232975334548557900, 	 1.92101501839303834274, 	 3.50968865316704681234
5.70460000000000011511, 	 0.40313978012634688053, 	 1.92615279453381238461, 	 3.49740978181581008144
5.70570000000000021600, 	 0.42429786683460929408, 	 1.93153072020861427127, 	 3.48530228858215984644
5.70680000000000031690, 	 0.44578209047686845334, 	 1.93714298633519210746, 	 3.47336610045096527699
5.70790000000000041780, 	 0.46757025659394196859, 	 1.94298365004703676995, 	 3.46160103492570003780
5.70900000000000051870, 	 0.48964018486417354437, 	 1.94904661834095005446, 	 3.45000699495364893110
5.71010000000000061959, 	 0.51196967846216767661, 	 1.95532561080835165512, 	 3.43858398290727240720
5.71119999999999983231, 	 0.53453652709431231926, 	 1.96181412950293121433, 	 3.42733200521936876015
5.71229999999999993321, 	 0.55731860416545764281, 	 1.96850543972206715182, 	 3.41625100599409758928
5.71340000000000003411, 	 0.58029433877744929227, 	 1.97539254491212457054, 	 3.40534081218598227991
5.71450000000000013500, 	 0.60344445299179838571, 	 1.98246817212043047185, 	 3.39460109508678620216
5.71560000000000023590, 	 0.62675040179248453498, 	 1.98972475111058577646, 	 3.38403140050292883245
5.71670000000000033680, 	 0.65019745756253488622, 	 1.99715440048355441505, 	 3.37363110066989380087
5.71780000000000043769, 	 0.67378108674595627026, 	 2.00474895135856323591, 	 3.36339938958920292578
5.71890000000000053859, 	 0.69751292317393898124, 	 2.01249999287356651223, 	 3.35333529630117954667
5.72000000000000063949, 	 0.72142734976534494962, 	 2.02039896770974936047, 	 3.34343774351754374763
5.72109999999999985221, 	 0.74558860257651149439, 	 2.02843736318044731703, 	 3.33370553380133216592
5.72219999999999995310, 	 0.77009784191530272768, 	 2.03660704276690784909, 	 3.32413749329063357152
5.72330000000000005400, 	 0.79509948504121630286, 	 2.04490077809030124101, 	 3.31473229365082389108
5.72440000000000015490, 	 0.82078589826247194683, 	 2.05331303319378122296, 	 3.30548850679680672471
5.72550000000000025580, 	 0.84739997202385264341, 	 2.06184102798835189319, 	 3.29640438441151095716
5.72660000000000035669, 	 0.87523557549345520901, 	 2.07048608755144414317, 	 3.28747790180624788192
5.72770000000000045759, 	 0.90463535669344219414, 	 2.07925526595062093449, 	 3.27870729566537599808
5.72880000000000055849, 	 0.93598289848732563190, 	 2.08816320735355631655, 	 3.27009128082404609827
5.72990000000000065938, 	 0.96970393944068078440, 	 2.09723419660628129790, 	 3.26162882587146807367
5.73099999999999987210, 	 1.00625655573500361051, 	 2.10650427290358344123, 	 3.25331917017530392044
5.73209999999999997300, 	 1.04611566072001527239, 	 2.11602332165931850128, 	 3.24516203533201119669
5.73320000000000007390, 	 1.08976725764710691280, 	 2.12585709372631725955, 	 3.23715795764788305533
5.73430000000000017479, 	 1.13770130285166493067, 	 2.13608900474778851120, 	 3.22930867380613673134
5.73540000000000027569, 	 1.19040537722673533949, 	 2.14682159928084859146, 	 3.22161753355910640551
5.73650000000000037659, 	 1.24836146585225837846, 	 2.15817761820989062471, 	 3.21408993513185192725
5.73760000000000047748, 	 1.31200563674324155450, 	 2.17030064004148437462, 	 3.20673378133293285330
5.73870000000000057838, 	 1.38357900828360858014, 	 2.18335524689085280770, 	 3.19955994849303149152
5.73980000000000067928, 	 1.46002278109928185224, 	 2.19752685524904300962, 	 3.19258275403342572929
5.74089999999999989200, 	 1.54105539123974866200, 	 2.21302322337471757407, 	 3.18582040008828748512
5.74199999999999999289, 	 1.62995837325566372833, 	 2.23007510124397567708, 	 3.17929533282821052964
5.74310000000000009379, 	 1.72701530339419639937, 	 2.24892442799602720882, 	 3.17303476628071878807
5.74420000000000019469, 	 1.83225890512441336178, 	 2.26981610534317690409, 	 3.16707088670631842220
5.74530000000000029559, 	 1.94589400517136068558, 	 2.29300537383424751781, 	 3.16144106118368428682
5.74640000000000039648, 	 2.06812619276732156948, 	 2.31876391857862262924, 	 3.15618791388288322253
5.74750000000000049738, 	 2.19903499010469793973, 	 2.34737908045556054049, 	 3.15135915655744680564
5.74860000000000059828, 	 2.33866748311422156803, 	 2.37915020977820823589, 	 3.14700716742908781498
5.74970000000000069917, 	 2.48710256975539767410, 	 2.41438422388027129628, 	 3.14318892671070893030
5.75079999999999991189, 	 2.64443832072803308719, 	 2.45339096460994188220, 	 3.13996600746317211517
5.75190000000000001279, 	 2.81072859189604162822, 	 2.49647912358856061132, 	 3.13740560040406180065
5.75300000000000011369, 	 2.98595961782660790362, 	 2.54395290758645575835, 	 3.13557291656742709307
5.75410000000000021458, 	 3.17008289697271861129, 	 2.59610930152026986306, 	 3.13453716315939168169
5.75520000000000031548, 	 3.36302902261818825735, 	 2.65323584797531930590, 	 3.13437533156709280391
5.75630000000000041638, 	 3.56471756305815201671, 	 2.71558562951190340939, 	 3.13516760578436137763
5.75740000000000051728, 	 3.77506416653300158615, 	 2.78335289588099721314, 	 3.13699695371246001230
5.75850000000000061817, 	 3.99396319756199602580, 	 2.85675953389104719804, 	 3.13994716913496407784
5.75960000000000071907, 	 4.22128776480161160833, 	 2.93610458030887055969, 	 3.14410253073276013680
5.76069999999999993179, 	 4.45689351113530651816, 	 3.02158843317387315608, 	 3.14954719366416968640
5.76180000000000003268, 	 4.70061467550186140585, 	 3.11339133148027569220, 	 3.15626936432289362244
5.76290000000000013358, 	 4.95226308275989790531, 	 3.21167296080358077859, 	 3.16376920413795081899
5.76400000000000023448, 	 5.21162362147247293365, 	 3.31656991192668249013, 	 3.17189116294847650579
5.76510000000000033538, 	 5.47846335206258672201, 	 3.42819426659259640644, 	 3.18130488869251459860
5.76620000000000043627, 	 5.75254750713190254885, 	 3.54663058554598142891, 	 3.19316731302442446960
5.76730000000000053717, 	 6.03363098489857385687, 	 3.67193400836708638835, 	 3.20858306411134774905
5.76840000000000063807, 	 6.32145822025109449527, 	 3.80413358174552929114, 	 3.22629021993448450445
5.76949999999999985079, 	 6.61576300198603206582, 	 3.94323972404250966406, 	 3.24597528861509587728
5.77059999999999995168, 	 6.91626878159985025718, 	 4.08924847799734347831, 	 3.26711733747549537554
5.77170000000000005258, 	 7.22268921545636466419, 	 4.24213722699113215953, 	 3.29003346612543001726
5.77280000000000015348, 	 7.53472765888465456641, 	 4.40185843287756384257, 	 3.31492037032505848515
5.77390000000000025437, 	 7.85207738134096722149, 	 4.56833559176866277340, 	 3.34190559037995127412
5.77500000000000035527, 	 8.17442739681481356229, 	 4.74146339612458334045, 	 3.37093289633934833915
5.77610000000000045617, 	 8.50145924871433322778, 	 4.92111024798332685748, 	 3.40194872955475613452
5.77720000000000055707, 	 8.83284699705725806496, 	 5.10712075644853058520, 	 3.43501345188082485294
5.77830000000000065796, 	 9.16825742707145607824, 	 5.29931719115232979789, 	 3.47019992286446132823
5.77939999999999987068, 	 9.50735073308169198469, 	 5.49750028046446992391, 	 3.50756732194201115149
5.78049999999999997158, 	 9.84978120165622961224, 	 5.70145048440557289382, 	 3.54714976053911446030
5.78160000000000007248, 	 10.19519787658521714491, 	 5.91092963326585252304, 	 3.58896493731154953011
5.78270000000000017337, 	 10.54324502263973073468, 	 6.12568250962916138747, 	 3.63300449223360599760
5.78380000000000027427, 	 10.89356245319591565135, 	 6.34543833453540440104, 	 3.67922837420724757607
5.78490000000000037517, 	 11.24578579399544153716, 	 6.56991210598239394614, 	 3.72761106164388644757
5.78600000000000047606, 	 11.59954666579080928557, 	 6.79880568615609615080, 	 3.77813531280482983732
5.78710000000000057696, 	 11.95447120911648752895, 	 7.03180872976910453787, 	 3.83078686134446622091
5.78820000000000067786, 	 12.31018472425180121377, 	 7.26859965347888614673, 	 3.88554940580499996727
5.78929999999999989058, 	 12.66630914889410242097, 	 7.50884682592279695257, 	 3.94240219422389737147
5.79039999999999999147, 	 13.02246410352001504407, 	 7.75220987493130131440, 	 4.00131753641286813661
5.79150000000000009237, 	 13.37826745139187956113, 	 7.99834098044728847299, 	 4.06226143132201222841
5.79260000000000019327, 	 13.73333532344274132697, 	 8.24688611917546765540, 	 4.12519315169292166701
5.79370000000000029416, 	 14.08728243061147189508, 	 8.49748625022089854042, 	 4.19006745258576440705
5.79480000000000039506, 	 14.43972232456109949794, 	 8.74977845606708903858, 	 4.25683542122381020079
5.79590000000000049596, 	 14.79026732905888863456, 	 9.00339706465709355143, 	 4.32544477549285666385
5.79700000000000059686, 	 15.13853268171631683003, 	 9.25797473992161457090, 	 4.39584013878452317670
5.79810000000000069775, 	 15.48413389633324754868, 	 9.51314351142016434437, 	 4.46796329157379012997
5.79919999999999991047, 	 15.82668694264578057584, 	 9.76853572336846731616, 	 4.54175339873118488754
5.80030000000000001137, 	 16.16581225336930671688, 	 10.02378498828748476512, 	 4.61714721676863337763
5.80140000000000011227, 	 16.50113280013523464618, 	 10.27852712780595823006, 	 4.69407944414726330251
5.80250000000000021316, 	 16.83227565388451552053, 	 10.53240108729999846560, 	 4.77248283078195445484
5.80360000000000031406, 	 17.15887382228682156438, 	 10.78504995605169014539, 	 4.85228794875227720240
5.80470000000000041496, 	 17.48056600660184756180, 	 11.03612230419977535689, 	 4.93342358842279260500
5.80580000000000051585, 	 17.79699654893881088924, 	 11.28527423969923226821, 	 5.01581711762528126286
5.80690000000000061675, 	 18.10781634641232074046, 	 11.53217165183913728299, 	 5.09939488594635825791
5.80800000000000071765, 	 18.41268400560774409769, 	 11.77647579238923825073, 	 5.18408173546811656962
5.80909999999999993037, 	 18.71126696115844367796, 	 12.01785131993771216230, 	 5.26980082246460668216
5.81020000000000003126, 	 19.00324239835664030807, 	 12.25597997130946659183, 	 5.35647489920099051375
5.81130000000000013216, 	 19.28829796786625649929, 	 12.49055218202450667775, 	 5.44402681718095671215
5.81240000000000023306, 	 19.56613234582256311000, 	 12.72126771346801454854, 	 5.53237895732527729109
5.81350000000000033396, 	 19.83645570456409501503, 	 12.94783649346125287138, 	 5.62145334958950204651
5.81460000000000043485, 	 20.09899016184242981353, 	 13.16997873827292231397, 	 5.71117036351916951276
5.81570000000000053575, 	 20.35347023699260660123, 	 13.38742535070265837760, 	 5.80144970685929362020
5.81680000000000063665, 	 20.59964331440163576303, 	 13.59991828731173946210, 	 5.89221079744297426828
5.81789999999999984936, 	 20.83727010112296440525, 	 13.80721107772147782100, 	 5.98337269840090701933
5.81899999999999995026, 	 21.06612506351320845965, 	 14.00906923373960388801, 	 6.07485927642443002128
5.82010000000000005116, 	 21.28599683137494125162, 	 14.20527047403763987177, 	 6.16659186511469759040
5.82120000000000015206, 	 21.49668856284307594251, 	 14.39560496405913880835, 	 6.25848232659576986237
5.82230000000000025295, 	 21.69801826582950710076, 	 14.57987557085272989355, 	 6.35044305125517816180
5.82340000000000035385, 	 21.88981907237930357724, 	 14.75789807513593387966, 	 6.44239170161574037365
5.82450000000000045475, 	 22.07193946341649493093, 	 14.92950132450367028980, 	 6.53425108140879729035
5.82560000000000055564, 	 22.24424344667274056064, 	 15.09452733127913681699, 	 6.62594746845105220245
5.82670000000000065654, 	 22.40661085295069554491, 	 15.25283135553425140074, 	 6.71740925888865714199
5.82779999999999986926, 	 22.55893690477235580261, 	 15.40428199977778511709, 	 6.80856608215666536665
5.82889999999999997016, 	 22.70113227162855196184, 	 15.54876130036789305677, 	 6.89934838840332442800
5.83000000000000007105, 	 22.83312432672609304518, 	 15.68616479660911267047, 	 6.98968736663316114743
5.83110000000000017195, 	 22.95485673869730547381, 	 15.81640156130142216284, 	 7.07951505138441561371
5.83220000000000027285, 	 23.06628833599060968140, 	 15.93939418859334189449, 	 7.16876451520143831431
5.83330000000000037375, 	 23.16739252950898020345, 	 16.05507874365765275115, 	 7.25737008410010719928
5.83440000000000047464, 	 23.25815694437880765122, 	 16.16340467447506412668, 	 7.34526754285941407829
5.83550000000000057554, 	 23.33858342419557985181, 	 16.26433468179612518156, 	 7.43239431590986310283
5.83660000000000067644, 	 23.40869005914822409409, 	 16.35784454571872714723, 	 7.51868962990308897787
5.83769999999999988916, 	 23.46848943947659549281, 	 16.44392292127848520522, 	 7.60409470026584433100
5.83879999999999999005, 	 23.51802950664433922157, 	 16.52257114810215199441, 	 7.68855272574147186049
5.83990000000000009095, 	 23.55737472758510264725, 	 16.59380300403481101057, 	 7.77200896186866518889
5.84100000000000019185, 	 23.58660287709732372718, 	 16.65764431972862169573, 	 7.85441082871118645414
5.84210000000000029274, 	 23.60580603784803344070, 	 16.71413261270295080863, 	 7.93570798981150016260
5.84320000000000039364, 	 23.61508914128244285280, 	 16.76331684126643750687, 	 8.01585257115255345184
5.84430000000000049454, 	 23.61456728370223956404, 	 16.80525743351732259612, 	 8.09479894364257290817
5.84540000000000059543, 	 23.60436540504912628080, 	 16.84002426225853454866, 	 8.17250366764714719636
5.84650000000000069633, 	 23.58461802801785367478, 	 16.86769649506675960993, 	 8.24892583886428276685
5.84759999999999990905, 	 23.55546899574204999794, 	 16.88836571681612497287, 	 8.32402705685452204420
5.84870000000000000995, 	 23.51707150004463287019, 	 16.90213235533626345841, 	 8.39777152930359527261
5.84980000000000011084, 	 23.46958816863973140698, 	 16.90910637300657270998, 	 8.47012596219865088187
5.85090000000000021174, 	 23.41319093702967890636, 	 16.90940657797747093127, 	 8.54105935595929111059
5.85200000000000031264, 	 23.34806063622482952269, 	 16.90315996900475781217, 	 8.61054286194457851877
5.85310000000000041354, 	 23.27438638422503558445, 	 16.89050130894028001194, 	 8.67854986830257502106
5.85420000000000051443, 	 23.19236489964123038021, 	 16.87157265156541541273, 	 8.74505612142303334622
5.85530000000000061533, 	 23.10219981742283934523, 	 16.84652284327592752788, 	 8.81003978697334666492
5.85640000000000071623, 	 23.00410104287212931240, 	 16.81550701763269017874, 	 8.87348145908182672770
5.85749999999999992895, 	 22.89826949452990945133, 	 16.77868607671402756409, 	 8.93536413655682615342
5.85860000000000002984, 	 22.78492412500847663637, 	 16.73622526999789172919, 	 8.99567318078193878250
5.85970000000000013074, 	 22.66429084812754979339, 	 16.68828982521233683656, 	 9.05439626361200389226
5.86080000000000023164, 	 22.53654563611047478844, 	 16.63504643417086725776, 	 9.11152330629998807865
5.86190000000000033253, 	 22.40187667002839333463, 	 16.57669204820398078937, 	 9.16704639017053146688
5.86300000000000043343, 	 22.26053020882003963266, 	 16.51344135841636884265, 	 9.22095960974122341725
5.86410000000000053433, 	 22.11277330395668272445, 	 16.44545004697427970086, 	 9.27325890966942978366
5.86520000000000063523, 	 21.95886922020059373040, 	 16.37289438410060782303, 	 9.32394201398376232248
5.86629999999999984794, 	 21.79912214282458648995, 	 16.29596292126823797730, 	 9.37300848826128962799
5.86739999999999994884, 	 21.63383154758326298861, 	 16.21484419471372007138, 	 9.42045993767937162033
5.86850000000000004974, 	 21.46326992461755978070, 	 16.12972781911762254481, 	 9.46630078971663913023
5.86960000000000015064, 	 21.28768730161682043445, 	 16.04080411243498360818, 	 9.51053940318603530102
5.87070000000000025153, 	 21.10732013917233729217, 	 15.94826404010968090574, 	 9.55318385212324727718
5.87180000000000035243, 	 20.92239814165938227575, 	 15.85229892989466726760, 	 9.59424094415260775293
5.87290000000000045333, 	 20.73314824562440961131, 	 15.75310005069358076923, 	 9.63371814394892922451
5.87400000000000055422, 	 20.53979611157921070230, 	 15.65085804526173696161, 	 9.67162500151052029196
5.87510000000000065512, 	 20.34256614645645200312, 	 15.54576228669977844277, 	 9.70797355248437554565
5.87619999999999986784, 	 20.14168401433139976575, 	 15.43800021703696145892, 	 9.74277797375508747280
5.87729999999999996874, 	 19.93737413397038693574, 	 15.32775676517938912014, 	 9.77605414115882176418
5.87840000000000006963, 	 19.72985891874223440823, 	 15.21521387204888142719, 	 9.80781950679189051812
5.87950000000000017053, 	 19.51935826572917420663, 	 15.10055010522830087893, 	 9.83809292652404110413
5.88060000000000027143, 	 19.30608312155725414527, 	 14.98394030256452857941, 	 9.86689409523725302620
5.88170000000000037232, 	 19.09027456171277137287, 	 14.86555530228471866394, 	 9.89424318715570727534
5.88280000000000047322, 	 18.87218768821619718778, 	 14.74556167232956482849, 	 9.92016044116776107842
5.88390000000000057412, 	 18.65203615618657195796, 	 14.62412150306478686446, 	 9.94466709251874725339
5.88500000000000067502, 	 18.43001182812066218730, 	 14.50139226803926284504, 	 9.96778510532284478529
5.88609999999999988773, 	 18.20629605908092329969, 	 14.37752681256402631504, 	 9.98953553485106127141
5.88719999999999998863, 	 17.98106565697433723017, 	 14.25267336606537682542, 	 10.00994075542237560228
5.88830000000000008953, 	 17.75449490376455230489, 	 14.12697534114255937254, 	 10.02902416811907926331
5.88940000000000019043, 	 17.52675571839733947854, 	 14.00057098261713406373, 	 10.04681086810400536535
5.89050000000000029132, 	 17.29801707993561876719, 	 13.87359302792858883890, 	 10.06332450005997536380
5.89160000000000039222, 	 17.06844482801630391577, 	 13.74616852119855003878, 	 10.07858746884954292966
5.89270000000000049312, 	 16.83820047821679466438, 	 13.61841877263962174993, 	 10.09262321628892777881
5.89380000000000059401, 	 16.60743606025283369831, 	 13.49045930690259531559, 	 10.10545615369600369604
5.89490000000000069491, 	 16.37630344637568313715, 	 13.36239985239912542170, 	 10.11711033980884621997
5.89599999999999990763, 	 16.14494961346353107956, 	 13.23434432103168667538, 	 10.12761021317774812189
5.89710000000000000853, 	 15.91351544189334177304, 	 13.10639074161737305246, 	 10.13698128083968619251
5.89820000000000010942, 	 15.68213515928692736168, 	 12.97863124436114823368, 	 10.14524706810759191455
5.89930000000000021032, 	 15.45093675124299537060, 	 12.85115221643712146715, 	 10.15243794211240668801
5.90040000000000031122, 	 15.22004226829360362672, 	 12.72403439584235762538, 	 10.15857673659491666740
5.90150000000000041211, 	 14.98956754877118591196, 	 12.59735286016370636730, 	 10.16368197725588551350
5.90260000000000051301, 	 14.75968469007358763179, 	 12.47117714846291747222, 	 10.16777233277302450176
5.90370000000000061391, 	 14.53056973913040472723, 	 12.34557141808699221031, 	 10.17086734629304878297
5.90480000000000071481, 	 14.30229005068538228329, 	 12.22059552506984836384, 	 10.17298713524302122835
5.90589999999999992752, 	 14.07490473626464932977, 	 12.09630488080481569568, 	 10.17415198435658929554
5.90700000000000002842, 	 13.84847424003938876069, 	 11.97274693127073419419, 	 10.17438205608360846099
5.90810000000000012932, 	 13.62306236597963682300, 	 11.84996662616805096491, 	 10.17369724762222560344
5.90920000000000023022, 	 13.39873383824609476278, 	 11.72800439400565508663, 	 10.17211711965980036609
5.91030000000000033111, 	 13.17555160059031216235, 	 11.60689601445793428525, 	 10.16966074090336924485
5.91140000000000043201, 	 12.95357750550410891321, 	 11.48667255808958564955, 	 10.16634692028505781991
